theta,real(S11),imag(S11),real(S22),imag(S22)
0.000000000000000,-7.076189448945469e-01,8.477683489620748e+00,-7.076189448945364e-01,8.477683489620732e+00
0.003141592653590,-7.076623496928299e-01,8.474708758979453e+00,-7.075247813107822e-01,8.474858001160031e+00
0.006283185307180,-7.077914821494909e-01,8.465788834074534e+00,-7.072416339597625e-01,8.466385424077256e+00
0.009424777960769,-7.080031013540805e-01,8.450936508686040e+00,-7.067675365468530e-01,8.452277416741165e+00
0.012566370614359,-7.082918221157685e-01,8.430173081534363e+00,-7.060992235809852e-01,8.432553388011444e+00
0.015707963267949,-7.086501393898831e-01,8.403528319949435e+00,-7.052321478276704e-01,8.407240464642582e+00
0.018849555921539,-7.090684623481247e-01,8.371040409084193e+00,-7.041605046491506e-01,8.376373445721319e+00
0.021991148575129,-7.095351579662210e-01,8.332755886750833e+00,-7.028772631381730e-01,8.339994744211186e+00
0.025132741228718,-7.100366039671714e-01,8.288729563978420e+00,-7.013742039254286e-01,8.298154315696536e+00
0.028274333882308,-7.105572509235794e-01,8.239024431412043e+00,-6.996419635150373e-01,8.250909574438770e+00
0.031415926535898,-7.110796932882620e-01,8.183711551699092e+00,-6.976700849771684e-01,8.198325296880958e+00
0.034557519189488,-7.115847490888985e-01,8.122869938025234e+00,-6.954470748019571e-01,8.140473512752894e+00
0.037699111843078,-7.120515479898922e-01,8.056586418989264e+00,-6.929604656949607e-01,8.077433383953268e+00
0.040840704496667,-7.124576273931555e-01,7.984955490024048e+00,-6.901968850709608e-01,8.009291071402242e+00
0.043982297150257,-7.127790362188001e-01,7.908079151594494e+00,-6.871421289802893e-01,7.936139590079584e+00
0.047123889803847,-7.129904459777192e-01,7.826066734425886e+00,-6.837812411804921e-01,7.858078652483919e+00
0.050265482457437,-7.130652687197735e-01,7.739034712034379e+00,-6.800985970450957e-01,7.775214500765554e+00
0.053407075111026,-7.129757814148220e-01,7.647106500856151e+00,-6.760779919819079e-01,7.687659727807530e+00
0.056548667764616,-7.126932562986386e-01,7.550412248290517e+00,-6.717027340145728e-01,7.595533087546802e+00
0.059690260418206,-7.121880966923118e-01,7.449088608996185e+00,-6.669557401639958e-01,7.498959294848558e+00
0.062831853071796,-7.114299777815351e-01,7.343278509796503e+00,-6.618196362497281e-01,7.398068815261564e+00
0.065973445725386,-7.103879918223882e-01,7.233130903575216e+00,-6.562768597171350e-01,7.292997645005423e+00
0.069115038378975,-7.090307972214287e-01,7.118800512560035e+00,-6.503097650821479e-01,7.183887081554007e+00
0.072256631032565,-7.073267709218004e-01,7.000447561415695e+00,-6.439007315738952e-01,7.070883485201120e+00
0.075398223686155,-7.052441635121440e-01,6.878237500584189e+00,-6.370322725444026e-01,6.954138032007893e+00
0.078539816339745,-7.027512564627675e-01,6.752340720332405e+00,-6.296871462058249e-01,6.833806458551121e+00
0.081681408993335,-6.998165208828527e-01,6.622932255984653e+00,-6.218484672478269e-01,6.710048798906207e+00
0.084823001646924,-6.964087771840989e-01,6.490191484836898e+00,-6.134998188818376e-01,6.583029114314885e+00
0.087964594300514,-6.924973550298531e-01,6.354301815268818e+00,-6.046253648544585e-01,6.452915216004217e+00
0.091106186954104,-6.880522529446425e-01,6.215450368584509e+00,-5.952099609694003e-01,6.319878381635040e+00
0.094247779607694,-6.830442969569781e-01,6.073827654133702e+00,-5.852392656561958e-01,6.184093065876099e+00
0.097389372261284,-6.774452976486399e-01,5.929627238279722e+00,-5.746998491244355e-01,6.045736605611292e+00
0.100530964914873,-6.712282049859749e-01,5.783045407795274e+00,-5.635793006442074e-01,5.904988920299337e+00
0.103672557568463,-6.643672603134799e-01,5.634280828286084e+00,-5.518663334973886e-01,5.762032208020862e+00
0.106814150222053,-6.568381448967426e-01,5.483534198252744e+00,-5.395508871496459e-01,5.617050637755201e+00
0.109955742875643,-6.486181244110482e-01,5.331007899417959e+00,-5.266242262002786e-01,5.470230038443000e+00
0.113097335529233,-6.396861887829570e-01,5.176905643957112e+00,-5.130790356754134e-01,5.321757585398169e+00
0.116238928182822,-6.300231868059446e-01,5.021432119283370e+00,-4.989095122407153e-01,5.171821484643364e+00
0.119380520836412,-6.196119549664973e-01,4.864792631048832e+00,-4.841114509213720e-01,5.020610655750068e+00
0.122522113490002,-6.084374399348046e-01,4.707192745032880e+00,-4.686823269306354e-01,4.868314413771571e+00
0.125663706143592,-5.964868141940519e-01,4.548837928598717e+00,-4.526213722233013e-01,4.715122150863877e+00
0.128805298797182,-5.837495843037950e-01,4.389933192405416e+00,-4.359296464066771e-01,4.561223018193385e+00
0.131946891450771,-5.702176913167912e-01,4.230682733070713e+00,-4.186101016597700e-01,4.406805608735558e+00
0.135088484104361,-5.558856028940377e-01,4.071289577483843e+00,-4.006676413304467e-01,4.252057641570511e+00
0.138230076757951,-5.407503966902525e-01,3.911955229472440e+00,-3.821091719011358e-01,4.097165648283870e+00
0.141371669411541,-5.248118346108238e-01,3.752879319529316e+00,-3.629436480352033e-01,3.942314662081216e+00
0.144513262065130,-5.080724275723787e-01,3.594259258307457e+00,-3.431821104396839e-01,3.787687910224927e+00
0.147654854718720,-4.905374904308613e-01,3.436289894589884e+00,-3.228377163037397e-01,3.633466510399144e+00
0.150796447372310,-4.722151867749976e-01,3.279163178439597e+00,-3.019257620978233e-01,3.479829171605669e+00
0.153938040025900,-4.531165633180060e-01,3.123067830232694e+00,-2.804636985447681e-01,3.326951900190605e+00
0.157079632679490,-4.332555736564299e-01,2.968189016270909e+00,-2.584711376009468e-01,3.175007711593587e+00
0.160221225333079,-4.126490912026202e-01,2.814708031664949e+00,-2.359698513139274e-01,3.024166348406448e+00
0.163362817986669,-3.913169111354244e-01,2.662801991170904e+00,-2.129837624514687e-01,2.874594005318525e+00
0.166504410640259,-3.692817412531209e-01,2.512643528652761e+00,-1.895389268262691e-01,2.726453061516997e+00
0.169646003293849,-3.465691816522485e-01,2.364400505831618e+00,-1.656635072704554e-01,2.579901821098358e+00
0.172787595947439,-3.232076931968925e-01,2.218235730970132e+00,-1.413877392444457e-01,2.435094262036221e+00
0.175929188601028,-2.992285547835935e-01,2.074306688124404e+00,-1.167438880950705e-01,2.292179794235214e+00
0.179070781254618,-2.746658094487064e-01,1.932765277579892e+00,-9.176619800901392e-02,2.151303027186834e+00
0.182212373908208,-2.495561994062898e-01,1.793757568068302e+00,-6.649083273837879e-02,2.012603547725360e+00
0.185353966561798,-2.239390901462954e-01,1.657423561342994e+00,-4.095580820630077e-02,1.876215708364815e+00
0.188495559215388,-1.978563837641643e-01,1.523896969667652e+00,-1.520091713135566e-02,1.742268426677986e+00
0.191637151868977,-1.713524217342038e-01,1.393305006749852e+00,1.073235415970744e-02,1.610884996158375e+00
0.194778744522567,-1.444738773797068e-01,1.265768192624687e+00,3.680091653118499e-02,1.482182908983138e+00
0.197920337176157,-1.172696383332493e-01,1.141400172967604e+00,6.296017621961834e-02,1.356273691072902e+00
0.201061929829747,-8.979067931970904e-02,1.020307553285151e+00,8.916414013801055e-02,1.233262749818238e+00
0.204203522483337,-6.208992563363794e-02,9.025897484034865e-01,1.153655280148392e-01,1.113249234818481e+00
0.207345115136926,-3.422210771980144e-02,7.883388476406505e-01,1.415158910521062e-01,9.963259119498087e-01
0.210486707790516,-6.243607302572346e-03,6.776394960165880e-01,1.675657367591251e-01,8.825790510530354e-01
0.213628300444106,2.178770445528145e-02,5.705687918181148e-01,1.934646595928753e-01,7.720883275006261e-01
0.216769893097696,4.981263624985052e-02,4.671962008010179e-01,2.191614770104081e-01,6.649267378737543e-01
0.219911485751285,7.777085284283390e-02,3.675834872723028e-01,2.446043705150210e-01,5.611605299475987e-01
0.223053078404875,1.056010576006499e-01,2.717846622572209e-01,2.697410312551571e-01,4.608491471517172e-01
0.226194671058465,1.332411807601840e-01,1.798459489150810e-01,2.945188097137424e-01,3.640451876389429e-01
0.229336263712055,1.606285727887718e-01,9.180576532633755e-02,3.188848690058181e-01,2.707943780623603e-01
0.232477856365645,1.877002021813486e-01,7.694724731377468e-03,3.427863412840083e-01,1.811355621257218e-01
0.235619449019234,2.143928570154474e-01,-7.246434674246326e-02,3.661704867348103e-01,9.510070393689615e-02
0.238761041672824,2.406433495643235e-01,-1.486563748722926e-01,3.889848546335093e-01,1.271490615919331e-02
0.241902634326414,2.663887232511530e-01,-2.208739847019293e-01,4.111774459126840e-01,-6.600355708187527e-02
0.245044226980004,2.915664612115777e-01,-2.891174305715565e-01,4.326968766875282e-01,-1.410431926140397e-01
0.248185819633594,3.161146957196330e-01,-3.533945089580661e-01,4.534925421722059e-01,-2.123992260714982e-01
0.251327412287183,3.399724177217052e-01,-4.137204543143131e-01,4.735147804136438e-01,-2.800735253372678e-01
0.254469004940773,3.630796857161043e-01,-4.701178181422588e-01,4.927150352639477e-01,-3.440745097636920e-01
0.257610597594363,3.853778332112216e-01,-5.226163315807423e-01,5.110460180091708e-01,-4.044170453966459e-01
0.260752190247953,4.068096739934397e-01,-5.712527518343604e-01,5.284618670707965e-01,-4.611223264654870e-01
0.263893782901543,4.273197044371949e-01,-6.160706928158035e-01,5.449183051972002e-01,-5.142177434374821e-01
0.267035375555132,4.468543020935653e-01,-6.571204404189704e-01,5.603727935652835e-01,-5.637367379712112e-01
0.270176968208722,4.653619198006593e-01,-6.944587528847826e-01,5.747846822175737e-01,-6.097186451390343e-01
0.273318560862312,4.827932745688422e-01,-7.281486467652114e-01,5.881153562673137e-01,-6.522085233232782e-01
0.276460153515902,4.991015305066650e-01,-7.582591690341988e-01,6.003283773135824e-01,-6.912569722252517e-01
0.279601746169492,5.142424750688126e-01,-7.848651559356333e-01,6.113896195199249e-01,-7.269199394591125e-01
0.282743338823081,5.281746879259284e-01,-8.080469791992687e-01,6.212673998237649e-01,-7.592585162349511e-01
0.285884931476671,5.408597017774309e-01,-8.278902802946643e-01,6.299326017596146e-01,-7.883387226667167e-01
0.289026524130261,5.522621544524098e-01,-8.444856934307603e-01,6.373587923969286e-01,-8.142312832703577e-01
0.292168116783851,5.623499316704962e-01,-8.579285580447539e-01,6.435223319133704e-01,-8.370113932463030e-01
0.295309709437441,5.710942998639518e-01,-8.683186215580654e-01,6.484024753460567e-01,-8.567584761676220e-01
0.298451302091030,5.784700284941551e-01,-8.757597332093106e-01,6.519814660871193e-01,-8.735559337208021e-01
0.301592894744620,5.844555013300334e-01,-8.803595298042154e-01,6.542446207155126e-01,-8.874908881701202e-01
0.304734487398210,5.890328161927549e-01,-8.822291142502311e-01,6.551804047843217e-01,-8.986539182389282e-01
0.307876080051800,5.921878727099529e-01,-8.814827277689576e-01,6.547804992119314e-01,-9.071387891215663e-01
0.311017672705389,5.939104476638483e-01,-8.782374167023661e-01,6.530398569559717e-01,-9.130421773581432e-01
0.314159265358979,5.941942575607029e-01,-8.726126948490800e-01,6.499567496811671e-01,-9.164633913209661e-01
0.317300858012569,5.930370080939223e-01,-8.647302022844470e-01,6.455328041656506e-01,-9.175040880757833e-01
0.320442450666159,5.904404302196942e-01,-8.547133616328110e-01,6.397730282251787e-01,-9.162679873932111e-01
0.323584043319749,5.864103026121509e-01,-8.426870327721346e-01,6.326858259705977e-01,-9.128605836957792e-01
0.326725635973338,5.809564603144325e-01,-8.287771669597571e-01,6.242830022509198e-01,-9.073888567336128e-01
0.329867228626928,5.740927894526455e-01,-8.131104613737623e-01,6.145797561722838e-01,-8.999609817871772e-01
0.333008821280518,5.658372079312424e-01,-7.958140150667609e-01,6.035946636217323e-01,-8.906860401983311e-01
0.336150413934108,5.562116320807213e-01,-7.770149873281982e-01,5.913496487640834e-01,-8.796737310314555e-01
0.339292006587698,5.452419292814495e-01,-7.568402594471593e-01,5.778699445199366e-01,-8.670340846643306e-01
0.342433599241287,5.329578566407518e-01,-7.354161008603664e-01,5.631840420730486e-01,-8.528771791039031e-01
0.345575191894877,5.193929858538766e-01,-7.128678406593516e-01,5.473236294956154e-01,-8.373128598150085e-01
0.348716784548467,5.045846144329190e-01,-6.893195454168061e-01,5.303235196203988e-01,-8.204504638404787e-01
0.351858377202057,4.885736635409968e-01,-6.648937042748172e-01,5.122215673289052e-01,-8.023985489789245e-01
0.354999969855647,4.714045627217098e-01,-6.397109222170727e-01,4.930585764648099e-01,-7.832646287718021e-01
0.358141562509236,4.531251218659814e-01,-6.138896224232178e-01,4.728781966213753e-01,-7.631549140341717e-01
0.361283155162826,4.337863908096077e-01,-5.875457585764945e-01,4.517268100906466e-01,-7.421740616439562e-01
0.364424747816416,4.134425070048282e-01,-5.607925379654253e-01,4.296534093003491e-01,-7.204249312823418e-01
0.367566340470006,3.921505317580571e-01,-5.337401561869847e-01,4.067094651018267e-01,-6.980083507935365e-01
0.370707933123596,3.699702755731239e-01,-5.064955442222940e-01,3.829487863086244e-01,-6.750228908053175e-01
0.373849525777185,3.469641131848102e-01,-4.791621286165049e-01,3.584273709203333e-01,-6.515646492226609e-01
0.376991118430775,3.231967889110850e-01,-4.518396054524561e-01,3.332032495001094e-01,-6.277270461755852e-01
0.380132711084365,2.987352129938155e-01,-4.246237287628446e-01,3.073363212064271e-01,-6.036006299689588e-01
0.383274303737955,2.736482496368290e-01,-3.976061139782673e-01,2.808881830102291e-01,-5.792728945466994e-01
0.386415896391545,2.480064974867726e-01,-3.708740569586824e-01,2.539219526573760e-01,-5.548281089455255e-01
0.389557489045134,2.218820633361676e-01,-3.445103691038778e-01,2.265020859632349e-01,-5.303471591744867e-01
0.392699081698724,1.953483298590476e-01,-3.185932289843214e-01,1.986941890510136e-01,-5.059074029157402e-01
0.395840674352314,1.684797182176672e-01,-2.931960508778175e-01,1.705648261681562e-01,-4.815825373998882e-01
0.398982267005904,1.413514464036642e-01,-2.683873705396594e-01,1.421813237355188e-01,-4.574424807655885e-01
0.402123859659494,1.140392841987257e-01,-2.442307484747536e-01,1.136115713021322e-01,-4.335532671683376e-01
0.405265452313083,8.661930565793950e-02,-2.207846909195985e-01,8.492382009381186e-02,-4.099769558572918e-01
0.408407044966673,5.916764003389776e-02,-1.981025886805294e-01,5.618647985709391e-02,-3.867715543922788e-01
0.411548637620263,3.176022207056188e-02,-1.762326739120262e-01,2.746791471017572e-02,-3.639909561253216e-01
0.414690230273853,4.472542603492268e-03,-1.552179948559357e-01,-1.163761279576035e-03,-3.416848920228729e-01
0.417831822927443,-2.262059959331935e-02,-1.350964084989388e-01,-2.964088806708800e-02,-3.198988968562231e-01
0.420973415581032,-4.944534377393420e-02,-1.159005910419477e-01,-5.789646242343279e-02,-2.986742897385327e-01
0.424115008234622,-7.592901006398953e-02,-9.765806601172108e-02,-8.586433882600233e-02,-2.780481689380259e-01
0.427256600888212,-1.020003382528704e-01,-8.039124978173542e-02,-1.134794277225392e-01,-2.580534208478465e-01
0.430398193541802,-1.275897216177239e-01,-6.411751420686333e-02,-1.406778904528706e-01,-2.387187429445095e-01
0.433539786195391,-1.526294348779956e-01,-4.884926601468612e-02,-1.673973301214195e-01,-2.200686805186585e-01
0.436681378848981,-1.770538553983821e-01,-3.459404253572398e-02,-1.935769777255570e-01,-2.021236769143997e-01
0.439822971502571,-2.007996767812310e-01,-2.135462329556737e-02,-2.191578728598620e-01,-1.849001369667263e-01
0.442964564156161,-2.238061140159830e-01,-9.129156934354407e-03,-2.440830383338384e-01,-1.684105032810081e-01
0.446106156809751,-2.460150993837275e-01,2.088697136845164e-03,-2.682976480611973e-01,-1.526633449539845e-01
0.449247749463340,-2.673714683486669e-01,1.230961298679810e-02,-2.917491876017534e-01,-1.376634582927357e-01
0.452389342116930,-2.878231347055659e-01,2.154842901753173e-02,-3.143876067627039e-01,-1.234119790465641e-01
0.455530934770520,-3.073212542927195e-01,2.982396616472473e-02,-3.361654636941934e-01,-1.099065056270007e-01
0.458672527424110,-3.258203766236318e-01,3.715883423550737e-02,-3.570380599447158e-01,-9.714123275325558e-02
0.461814120077700,-3.432785838371025e-01,4.357922721719923e-02,-3.769635659747557e-01,-8.510709492466044e-02
0.464955712731289,-3.596576164147843e-01,4.911470843051511e-02,-3.959031366621798e-01,-7.379191908802503e-02
0.468097305384879,-3.749229851671952e-01,5.379798643734721e-02,-4.138210163700594e-01,-6.318058583663085e-02
0.471238898038469,-3.890440690434936e-01,5.766468264638320e-02,-4.306846331867031e-01,-5.325519844875497e-02
0.474380490692059,-4.019941983767251e-01,6.075309158915219e-02,-4.464646819884481e-01,-4.399525904759597e-02
0.477522083345649,-4.137507232347711e-01,6.310393486477078e-02,-4.611351960183862e-01,-3.537785114093760e-02
0.480663675999238,-4.242950666071980e-01,6.476010977320892e-02,-4.746736067179548e-01,-2.737782777845120e-02
0.483805268652828,-4.336127622198516e-01,6.576643367448701e-02,-4.870607915936538e-01,-1.996800454685206e-02
0.486946861306418,-4.416934768317189e-01,6.616938512459185e-02,-4.982811099473873e-01,-1.311935660854648e-02
0.490088453960008,-4.485310169322496e-01,6.601684284800809e-02,-5.083224263461398e-01,-6.801218977941560e-03
0.493230046613598,-4.541233198216159e-01,6.535782361158123e-02,-5.171761217546301e-01,-9.814892212349389e-04
0.496371639267187,-4.584724291210616e-01,6.424222006486388e-02,-5.248370923030085e-01,4.373168239598242e-03
0.499513231920777,-4.615844548252418e-01,6.272053960814908e-02,-5.313037357104298e-01,9.297117039778698e-03
0.502654824574367,-4.634695180729799e-01,6.084364534105331e-02,-5.365779254341581e-01,1.382554382141687e-02
0.505796417227957,-4.641416808769617e-01,5.866250013176605e-02,-5.406649726626717e-01,1.799425403500993e-02
0.508938009881546,-4.636188611161267e-01,5.622791483002076e-02,-5.435735763196391e-01,2.183946939988544e-02
0.512079602535136,-4.619227331567541e-01,5.359030162542117e-02,-5.453157612935867e-01,2.539762781952009e-02
0.515221195188726,-4.590786145290994e-01,5.079943352717411e-02,-5.459068051553034e-01,2.870518653327495e-02
0.518362787842316,-4.551153391456596e-01,4.790421091147668e-02,-5.453651536712709e-01,3.179842926847086e-02
0.521504380495906,-4.500651176044889e-01,4.495243604904441e-02,-5.437123254665663e-01,3.471327813605393e-02
0.524645973149495,-4.439633851761130e-01,4.199059648755549e-02,-5.409728062344580e-01,3.748511098937138e-02
0.527787565803085,-4.368486381253133e-01,3.906365812232775e-02,-5.371739329321863e-01,4.014858493888972e-02
0.530929158456675,-4.287622590690656e-01,3.621486874352391e-02,-5.323457684429409e-01,4.273746668620961e-02
0.534070751110265,-4.197483321190060e-01,3.348557279970712e-02,-5.265209672226523e-01,4.528447030845582e-02
0.537212343763855,-4.098534486007026e-01,3.091503806594279e-02,-5.197346324867392e-01,4.782110308932613e-02
0.540353936417444,-3.991265041825706e-01,2.854029484997768e-02,-5.120241655261987e-01,5.037751995576879e-02
0.543495529071034,-3.876184882842077e-01,2.639598831264785e-02,-5.034291077742691e-01,5.298238703969420e-02
0.546637121724624,-3.753822666671036e-01,2.451424441874445e-02,-4.939909762741165e-01,5.566275484238165e-02
0.549778714378214,-3.624723581399250e-01,2.292454997242343e-02,-4.837530932245632e-01,5.844394143557559e-02
0.552920307031804,-3.489447063356904e-01,2.165364712708161e-02,-4.727604103045196e-01,6.134942608777735e-02
0.556061899685393,-3.348564475390919e-01,2.072544269382608e-02,-4.610593284975576e-01,6.440075365720503e-02
0.559203492338983,-3.202656755586846e-01,2.016093250539137e-02,-4.486975141556313e-01,6.761745004446011e-02
0.562345084992573,-3.052312046508594e-01,1.997814102404583e-02,-4.357237120555214e-01,7.101694894830972e-02
0.565486677646163,-2.898123315099921e-01,2.019207631289785e-02,-4.221875562127627e-01,7.461453011746862e-02
0.568628270299752,-2.740685973421957e-01,2.081470042039416e-02,-4.081393792257887e-01,7.842326923991122e-02
0.571769862953342,-2.580595510384550e-01,2.185491515805541e-02,-3.936300209276220e-01,8.245399955948125e-02
0.574911455606932,-2.418445144566317e-01,2.331856318187550e-02,-3.787106371236164e-01,8.671528525743312e-02
