theta,real(S11),imag(S11),real(S22),imag(S22)
0.000000000000000,1.450225482663121e-01,2.828179352949178e+00,1.450225452946469e-01,2.828179358368696e+00
0.003141592653590,1.440908256551074e-01,2.827278024186531e+00,1.455882998413968e-01,2.827073802723595e+00
0.006283185307180,1.412985915835928e-01,2.824575230049430e+00,1.472837109622845e-01,2.823758336168837e+00
0.009424777960769,1.366546402081048e-01,2.820074545522756e+00,1.501032255821989e-01,2.818236559916214e+00
0.012566370614359,1.301736045354215e-01,2.813781924014251e+00,1.540376033388057e-01,2.810514475746063e+00
0.015707963267949,1.218759205712100e-01,2.805705689998710e+00,1.590739387095550e-01,2.800600485629306e+00
0.018849555921539,1.117877771862125e-01,2.795856528709573e+00,1.651956919550720e-01,2.788505391159843e+00
0.021991148575129,9.994105175923623e-02,2.784247472868360e+00,1.723827288440695e-01,2.774242392759763e+00
0.025132741228718,8.637323167293776e-02,2.770893886439166e+00,1.806113691150993e-01,2.757827088608326e+00
0.028274333882308,7.112732175578300e-02,2.755813445393382e+00,1.898544436202418e-01,2.739277473234725e+00
0.031415926535898,5.425173778239357e-02,2.739026115468318e+00,2.000813600849352e-01,2.718613935705558e+00
0.034557519189488,3.580018616193370e-02,2.720554126900586e+00,2.112581774080108e-01,2.695859257325545e+00
0.037699111843078,1.583152996423934e-02,2.700421946115049e+00,2.233476884145412e-01,2.671038608761516e+00
0.040840704496667,-5.590358548012525e-03,2.678656244347893e+00,2.363095109633612e-01,2.644179546488342e+00
0.043982297150257,-2.839675869171745e-02,2.655285863182621e+00,2.501001872990888e-01,2.615312008446251e+00
0.047123889803847,-5.251427523014956e-02,2.630341776977763e+00,2.646732915266205e-01,2.584468308789682e+00
0.050265482457437,-7.786502510288119e-02,2.603857052164473e+00,2.799795450740244e-01,2.551683131597422e+00
0.053407075111026,-1.043668367642430e-01,2.575866803394171e+00,2.959669399965156e-01,2.516993523405815e+00
0.056548667764616,-1.319334618530685e-01,2.546408146516812e+00,3.125808699612506e-01,2.480438884417409e+00
0.059690260418206,-1.604747988919916e-01,2.515520148373203e+00,3.297642687387271e-01,2.442060958230013e+00
0.062831853071796,-1.898971286900745e-01,2.483243773385806e+00,3.474577560125190e-01,2.401903819921732e+00
0.065973445725386,-2.201033610961525e-01,2.449621826936998e+00,3.655997903039374e-01,2.360013862322019e+00
0.069115038378975,-2.509932927244363e-01,2.414698895525815e+00,3.841268287933619e-01,2.316439780289909e+00
0.072256631032565,-2.824638752455684e-01,2.378521283699455e+00,4.029734938034404e-01,2.271232552816128e+00
0.075398223686155,-3.144094938088979e-01,2.341136947759484e+00,4.220727456935116e-01,2.224445422758116e+00
0.078539816339745,-3.467222551318410e-01,2.302595426248654e+00,4.413560618970033e-01,2.176133874013216e+00
0.081681408993335,-3.792922847629977e-01,2.262947767229431e+00,4.607536218163982e-01,2.126355605929988e+00
0.084823001646924,-4.120080329946185e-01,2.222246452372183e+00,4.801944972719482e-01,2.075170504753895e+00
0.087964594300514,-4.447565888686792e-01,2.180545317877948e+00,4.996068481816274e-01,2.022640611901118e+00
0.091106186954104,-4.774240016895585e-01,2.137899472267689e+00,5.189181231310634e-01,1.968830088850723e+00
0.094247779607694,-5.098956094227635e-01,2.094365211079075e+00,5.380552644719609e-01,1.913805178445489e+00
0.097389372261284,-5.420563733269418e-01,2.049999928520221e+00,5.569449175679952e-01,1.857634162390341e+00
0.100530964914873,-5.737912181330175e-01,2.004862026138765e+00,5.755136437867491e-01,1.800387314737288e+00
0.103672557568463,-6.049853770499239e-01,1.959010818575969e+00,5.936881368152285e-01,1.742136851148683e+00
0.106814150222053,-6.355247408433573e-01,1.912506436484932e+00,6.113954418560609e-01,1.682956873731330e+00
0.109955742875643,-6.652962101995128e-01,1.865409726704312e+00,6.285631772401669e-01,1.622923311238802e+00
0.113097335529233,-6.941880505519703e-01,1.817782149790146e+00,6.451197579705553e-01,1.562113854443128e+00
0.116238928182822,-7.220902485163994e-01,1.769685675021441e+00,6.609946206909935e-01,1.500607886483335e+00
0.119380520836412,-7.488948690441519e-01,1.721182673007936e+00,6.761184495520176e-01,1.438486408005138e+00
0.122522113490002,-7.744964123732522e-01,1.672335806042037e+00,6.904234024261600e-01,1.375831956914294e+00
0.125663706143592,-7.987921698231026e-01,1.623207916351423e+00,7.038433369037075e-01,1.312728522576096e+00
0.128805298797182,-8.216825774480968e-01,1.573861912422836e+00,7.163140354802452e-01,1.249261454303851e+00
0.131946891450771,-8.430715665351423e-01,1.524360653583145e+00,7.277734293276502e-01,1.185517363992229e+00
0.135088484104361,-8.628669099015300e-01,1.474766833038687e+00,7.381618200214582e-01,1.121584022764554e+00
0.138230076757951,-8.809805629222911e-01,1.425142859589779e+00,7.474220985793943e-01,1.057550251518658e+00
0.141371669411541,-8.973289981906279e-01,1.375550738252893e+00,7.554999611485516e-01,9.935058052724514e-01
0.144513262065130,-9.118335326919370e-01,1.326051950039394e+00,7.623441206628897e-01,9.295412512289792e-01
0.147654854718720,-9.244206463504041e-01,1.276707331155298e+00,7.679065137774208e-01,8.657478405001201e-01
0.150796447372310,-9.350222907890057e-01,1.227576951902511e+00,7.721425023721886e-01,8.022173734495677e-01
0.153938040025900,-9.435761871276793e-01,1.178719995578255e+00,7.750110689068211e-01,7.390420586390948e-01
0.157079632679490,-9.500261116318550e-01,1.130194637684170e+00,7.764750048959540e-01,6.763143653860162e-01
0.160221225333079,-9.543221680143863e-01,1.082057925772226e+00,7.765010917672920e-01,6.141268699664426e-01
0.163362817986669,-9.564210451878984e-01,1.034365660268859e+00,7.750602733570034e-01,5.525720955263842e-01
0.166504410640259,-9.562862592632514e-01,9.871722766328084e-01,7.721278192927791e-01,4.917423457922449e-01
0.169646003293849,-9.538883785918666e-01,9.405307292150288e-01,7.676834785121844e-01,4.317295327028325e-01
0.172787595947439,-9.492052306570223e-01,8.944923772016030e-01,7.617116221642248e-01,3.726249981177470e-01
0.175929188601028,-9.422220896304867e-01,8.491068730313527e-01,7.542013751443489e-01,3.145193297904517e-01
0.179070781254618,-9.329318434280035e-01,8.044220536902053e-01,7.451467355187288e-01,2.575021718299391e-01
0.182212373908208,-9.213351391187858e-01,7.604838352926219e-01,7.345466811017139e-01,2.016620299110946e-01
0.185353966561798,-9.074405055719551e-01,7.173361113679408e-01,7.224052624618411e-01,1.470860715319996e-01
0.188495559215388,-8.912644522560149e-01,6.750206552748292e-01,7.087316816462850e-01,9.385992165518765e-02
0.191637151868977,-8.728315431468242e-01,6.335770271711190e-01,6.935403559316963e-01,4.206745411007136e-02
0.194778744522567,-8.521744447448798e-01,5.930424859681319e-01,6.768509659307980e-01,-8.209420825551943e-03
0.197920337176157,-8.293339472547486e-01,5.534519066989365e-01,6.586884874094791e-01,-5.689097220482016e-02
0.201061929829747,-8.043589580376321e-01,5.148377037275789e-01,6.390832061979950e-01,-1.038998670501170e-01
0.204203522483337,-7.773064665133870e-01,4.772297602225681e-01,6.180707156131047e-01,-1.491613913049373e-01
0.207345115136926,-7.482414797598187e-01,4.406553643108208e-01,5.956918958447418e-01,-1.926036725114679e-01
0.210486707790516,-7.172369281362238e-01,4.051391523198417e-01,5.719928748024077e-01,-2.341579035821944e-01
0.213628300444106,-6.843735403432829e-01,3.707030595038813e-01,5.470249699615269e-01,-2.737585669913061e-01
0.216769893097696,-6.497396874244746e-01,3.373662786362315e-01,5.208446108001451e-01,-3.113436586684024e-01
0.219911485751285,-6.134311953133168e-01,3.051452268326014e-01,4.935132414701979e-01,-3.468549108352906e-01
0.223053078404875,-5.755511256373093e-01,2.740535209512405e-01,4.650972034062301e-01,-3.802380129850877e-01
0.226194671058465,-5.362095246024957e-01,2.441019618929725e-01,4.356675976372422e-01,-4.114428301627391e-01
0.229336263712055,-4.955231399022993e-01,2.152985280990443e-01,4.053001266345507e-01,-4.404236176673531e-01
0.232477856365645,-4.536151057205720e-01,1.876483785166074e-01,3.740749156001496e-01,-4.671392312595183e-01
0.235619449019234,-4.106145960309094e-01,1.611538652703502e-01,3.420763131755920e-01,-4.915533319219245e-01
0.238761041672824,-3.666564465329357e-01,1.358145562450217e-01,3.093926716315360e-01,-5.136345841885579e-01
0.241902634326414,-3.218807457095916e-01,1.116272677462120e-01,2.761161066815400e-01,-5.333568470280499e-01
0.245044226980004,-2.764323956389687e-01,8.858610736723098e-02,2.423422371516626e-01,-5.506993562392457e-01
0.248185819633594,-2.304606433473811e-01,6.668252714675865e-02,2.081699048282142e-01,-5.656468972937467e-01
0.251327412287183,-1.841185836487184e-01,4.590538705670182e-02,1.737008749008745e-01,-5.781899675397704e-01
0.254469004940773,-1.375626345762871e-01,2.624102881116212e-02,1.390395175157354e-01,-5.883249266659747e-01
0.257610597594363,-9.095198667788644e-02,7.673359936649840e-03,1.042924710532074e-01,-5.960541343121556e-01
0.260752190247953,-4.444802761187417e-02,-9.816052009545139e-03,6.956828784865701e-02,-6.013860737070564e-01
0.263893782901543,1.786256349964400e-03,-2.624787524159149e-02,3.497706317821232e-02,-6.043354602118065e-01
0.267035375555132,4.758690013770465e-02,-4.164489979426620e-02,6.300484386755897e-04,-6.049233336514633e-01
0.270176968208722,9.278959907279616e-02,-5.603191410476970e-02,-3.336075044201934e-02,-6.031771333267772e-01
0.273318560862312,1.372303653198138e-01,-6.943557247387869e-02,-6.688298821904956e-02,-5.991307546142476e-01
0.276460153515902,1.807461993228191e-01,-8.188425381543736e-02,-9.982440791672734e-02,-5.928245860849959e-01
0.279601746169492,2.231757737856678e-01,-9.340791216625477e-02,-1.320732794253136e-01,-5.843055261021960e-01
0.282743338823081,2.643601275969885e-01,-1.040379194922159e-01,-1.635188476407820e-01,-5.736269778933447e-01
0.285884931476671,3.041433669472262e-01,-1.138069013903369e-01,-1.940517885745259e-01,-5.608488221373594e-01
0.289026524130261,3.423733707379844e-01,-1.227485663500709e-01,-2.235646717569301e-01,-5.460373661580756e-01
0.292168116783851,3.789024972446391e-01,-1.308975293001238e-01,-2.519524271588614e-01,-5.292652688751228e-01
0.295309709437441,4.135882888627100e-01,-1.382891302288173e-01,-2.791128147589238e-01,-5.106114407305314e-01
0.298451302091030,4.462941716480726e-01,-1.449592487260691e-01,-3.049468947925144e-01,-4.901609178851697e-01
0.301592894744620,4.768901462519835e-01,-1.509441153529258e-01,-3.293594966320734e-01,-4.680047100631854e-01
0.304734487398210,5.052534667558234e-01,-1.562801207997421e-01,-3.522596841675451e-01,-4.442396215148343e-01
0.307876080051800,5.312693038277816e-01,-1.610036238458546e-01,-3.735612154820536e-01,-4.189680446691482e-01
0.311017672705389,5.548313885567728e-01,-1.651507591815659e-01,-3.931829945517756e-01,-3.922977261568789e-01
0.314159265358979,5.758426332680566e-01,-1.687572461967150e-01,-4.110495126411146e-01,-3.643415050017384e-01
0.317300858012569,5.942157255921531e-01,-1.718581998785524e-01,-4.270912770158248e-01,-3.352170229033664e-01
0.320442450666159,6.098736920444254e-01,-1.744879449944323e-01,-4.412452245580779e-01,-3.050464066691054e-01
0.323584043319749,6.227504273787957e-01,-1.766798347614656e-01,-4.534551178399497e-01,-2.739559229925042e-01
0.326725635973338,6.327911860059764e-01,-1.784660752251000e-01,-4.636719211956342e-01,-2.420756059248400e-01
0.329867228626928,6.399530318158428e-01,-1.798775565811332e-01,-4.718541543291073e-01,-2.095388575409945e-01
0.333008821280518,6.442052428157633e-01,-1.809436926803247e-01,-4.779682210034253e-01,-1.764820224623114e-01
0.336150413934108,6.455296670927699e-01,-1.816922699511086e-01,-4.819887103811653e-01,-1.430439370661085e-01
0.339292006587698,6.439210267281438e-01,-1.821493069634058e-01,-4.838986686233359e-01,-1.093654543834598e-01
0.342433599241287,6.393871664388038e-01,-1.823389258347761e-01,-4.836898384069875e-01,-7.558894586322577e-02
0.345575191894877,6.319492438914222e-01,-1.822832366487712e-01,-4.813628640903307e-01,-4.185778135987230e-02
0.348716784548467,6.216418588326316e-01,-1.820022360139693e-01,-4.769274603388571e-01,-8.315788884820634e-03
0.351858377202057,6.085131184023138e-01,-1.815137208405589e-01,-4.704025421272010e-01,2.489330415527274e-02
0.354999969855647,5.926246362466667e-01,-1.808332183492394e-01,-4.618163141495628e-01,5.762644632588976e-02
0.358141562509236,5.740514633233967e-01,-1.799739332544959e-01,-4.512063178066678e-01,8.974185204693341e-02
0.361283155162826,5.528819485926761e-01,-1.789467129809198e-01,-4.386194340896766e-01,1.210996037178544e-01
0.364424747816416,5.292175281136128e-01,-1.777600316771558e-01,-4.241118408510109e-01,1.515622636355478e-01
0.367566340470006,5.031724414164612e-01,-1.764199936874161e-01,-4.077489231388635e-01,1.809954930815446e-01
0.370707933123596,4.748733743944171e-01,-1.749303570254595e-01,-3.896051354758359e-01,2.092686757876957e-01
0.373849525777185,4.444590283543326e-01,-1.732925772707805e-01,-3.697638151823390e-01,2.362555428298813e-01
0.376991118430775,4.120796152818762e-01,-1.715058721719090e-01,-3.483169460817713e-01,2.618347958485747e-01
0.380132711084365,3.778962798115305e-01,-1.695673070976439e-01,-3.253648721762263e-01,2.858907253551092e-01
0.383274303737955,3.420804488436618e-01,-1.674719013243647e-01,-3.010159611479588e-01,3.083138207548216e-01
0.386415896391545,3.048131102174577e-01,-1.652127549869893e-01,-2.753862178220161e-01,3.290013686043544e-01
0.389557489045134,2.662840223275335e-01,-1.627811963535242e-01,-2.485988480183912e-01,3.478580355220172e-01
0.392699081698724,2.266908570606027e-01,-1.601669489094048e-01,-2.207837735263251e-01,3.647964320889119e-01
0.395840674352314,1.862382789242273e-01,-1.573583175590522e-01,-1.920770992478060e-01,3.797376540159447e-01
0.398982267005904,1.451369637390703e-01,-1.543423930694230e-01,-1.626205338802204e-01,3.926117968095834e-01
0.402123859659494,1.036025607660642e-01,-1.511052736951253e-01,-1.325607658378466e-01,4.033584401487552e-01
0.405265452313083,6.185460263684171e-02,-1.476323027382904e-01,-1.020487964464536e-01,4.119270981881020e-01
0.408407044966673,2.011536794653442e-02,-1.439083206103685e-01,-7.123923278308662e-02,4.182776320301691e-01
0.411548637620263,-2.139129815205274e-02,-1.399179297789219e-01,-4.028954287137882e-02,4.223806206625569e-01
0.414690230273853,-6.244119954775696e-02,-1.356457708020636e-01,-9.359276279919648e-03,4.242176867364407e-01
0.417831822927443,-1.028110347112940e-01,-1.310768074781819e-01,2.139074649570175e-02,4.237817736715443e-01
0.420973415581032,-1.422796654988479e-01,-1.261966189708302e-01,5.179927215978514e-02,4.210773707102856e-01
0.424115008234622,-1.806294021429508e-01,-1.209916966101360e-01,8.170547622698723e-02,4.161206827112855e-01
0.427256600888212,-2.176472969873400e-01,-1.154497429246188e-01,1.109498437849515e-01,4.089397416702104e-01
0.430398193541802,-2.531264391902368e-01,-1.095599703229989e-01,1.393750647859167e-01,3.995744571844241e-01
0.433539786195391,-2.868672423277374e-01,-1.033133967263235e-01,1.668269389697031e-01,3.880766033372279e-01
0.436681378848981,-3.186787165796913e-01,-9.670313534857972e-02,1.931552852661039e-01,3.745097397675297e-01
0.439822971502571,-3.483797169789506e-01,-8.972467574078519e-02,2.182148502935875e-01,3.589490650111993e-01
0.442964564156161,-3.758001590543967e-01,-8.237615315132928e-02,2.418662103656490e-01,3.414812005506076e-01
0.446106156809751,-4.007821931032610e-01,-7.465860321579425e-02,2.639766612397192e-01,3.222039043879077e-01
0.449247749463340,-4.231813282915295e-01,-6.657619897447781e-02,2.844210896983398e-01,3.012257133644611e-01
0.452389342116930,-4.428674978063866e-01,-5.813646722683816e-02,3.030828209415257e-01,2.786655138818355e-01
0.455530934770520,-4.597260563742759e-01,-4.935048127066999e-02,3.198544356952351e-01,2.546520411373601e-01
0.458672527424110,-4.736587016148214e-01,-4.023302714117827e-02,3.346385509062475e-01,2.293233074670292e-01
0.461814120077700,-4.845843109264271e-01,-3.080274056244934e-02,3.473485579006264e-01,2.028259608884719e-01
0.464955712731289,-4.924396858956629e-01,-2.108221195190097e-02,3.579093119336498e-01,1.753145754537437e-01
0.468097305384879,-4.971801965904761e-01,-1.109805697783054e-02,3.662577671552958e-01,1.469508755530097e-01
0.471238898038469,-4.987803185374756e-01,-8.809503614662095e-04,3.723435511588485e-01,1.179028968523222e-01
0.474380490692059,-4.972340556959170e-01,9.534379161856898e-03,3.761294734721013e-01,8.834408709816212e-02
0.477522083345649,-4.925552433250988e-01,2.010919455306053e-02,3.775919625922265e-01,5.845235057395754e-02
0.480663675999238,-4.847777252962081e-01,3.080083839597296e-02,3.767214264570472e-01,2.840904054577313e-02
0.483805268652828,-4.739554011224526e-01,4.156286426910766e-02,3.735225315877314e-01,-1.602095419350671e-03
0.486946861306418,-4.601621387699307e-01,5.234521244654067e-02,3.680143965305640e-01,-3.139601184236698e-02
0.490088453960008,-4.434915501627741e-01,6.309443043984002e-02,3.602306956679951e-01,-6.078749748696942e-02
0.493230046613598,-4.240566272057164e-01,7.375393849575290e-02,3.502196699606048e-01,-8.959233683689113e-02
0.496371639267187,-4.019892371105978e-01,8.426433974437472e-02,3.380440417205773e-01,-1.176284939760237e-01
0.499513231920777,-3.774394768249890e-01,9.456377425253043e-02,3.237808311017579e-01,-1.447173115054180e-01
0.502654824574367,-3.505748874150177e-01,1.045883157803078e-01,3.075210726190685e-01,-1.706847167206653e-01
0.505796417227957,-3.215795303436146e-01,1.142724095686735e-01,2.893694306779451e-01,-1.953624269037504e-01
0.508938009881546,-2.906529287025519e-01,1.235493490066826e-01,2.694437137993041e-01,-2.185891452600811e-01
0.512079602535136,-2.580088775933597e-01,1.323517885423439e-01,2.478742879632062e-01,-2.402117387597180e-01
0.515221195188726,-2.238741290001086e-01,1.406122897161937e-01,2.248033902606972e-01,-2.600863889264461e-01
0.518362787842316,-1.884869576465054e-01,1.482638967160045e-01,2.003843448330749e-01,-2.780797064644248e-01
0.521504380495906,-1.520956154715149e-01,1.552407373798443e-01,1.747806838860336e-01,-2.940698005239131e-01
0.524645973149495,-1.149566834810558e-01,1.614786451183859e-01,1.481651773865325e-01,-3.079472933896406e-01
0.527787565803085,-7.733333082826430e-02,1.669157967913208e-01,1.207187758769298e-01,-3.196162714312178e-01
0.530929158456675,-3.949349203016674e-02,1.714933611627593e-01,9.262947166698071e-02,-3.289951632882605e-01
0.534070751110265,-1.707974233797402e-03,1.751561521821858e-01,6.409108448294215e-02,-3.360175364762782e-01
0.537212343763855,3.575149261164506e-02,1.778532809967985e-01,3.530197845665740e-02,-3.406328038953503e-01
0.540353936417444,7.261424894858257e-02,1.795388003034476e-01,6.463718118846311e-03,-3.428068321037093e-01
0.543495529071034,1.086127276547923e-01,1.801723343996148e-01,-2.222032818815931e-02,-3.425224436836485e-01
0.546637121724624,1.434844897270026e-01,1.797196880983133e-01,-5.054642835013555e-02,-3.397798065779109e-01
0.549778714378214,1.769742578042752e-01,1.781534275366168e-01,-7.831196017827802e-02,-3.345967039103275e-01
0.552920307031804,2.088359312552472e-01,1.754534258365787e-01,-1.053169083567623e-01,-3.270086785236414e-01
0.556061899685393,2.388345662004690e-01,1.716073665750738e-01,-1.313653736827067e-01,-3.170690472679471e-01
0.559203492338983,2.667483036201552e-01,1.666111980894482e-01,-1.562670831602722e-01,-3.048487809518016e-01
0.562345084992573,2.923702286157100e-01,1.604695317923313e-01,-1.798388891073812e-01,-2.904362468208995e-01
0.565486677646163,3.155101439577178e-01,1.531959778942094e-01,-2.019062451151988e-01,-2.739368114511280e-01
0.568628270299752,3.359962412686787e-01,1.448134122385413e-01,-2.223046464734040e-01,-2.554723030279980e-01
0.571769862953342,3.536766535603489e-01,1.353541683425634e-01,-2.408810225449786e-01,-2.351803331260074e-01
0.574911455606932,3.684208733761018e-01,1.248601492079526e-01,-2.574950685483840e-01,-2.132134792915304e-01
0.578053048260522,3.801210214797188e-01,1.133828540187820e-01,-2.720205042874270e-01,-1.897383309628398e-01
