theta,real(S11),imag(S11),real(S22),imag(S22)
0.000000000000000,-9.409938934312734e-01,2.347783810274372e+00,-9.409938931261729e-01,2.347783810599168e+00
0.003141592653590,-9.404932566875556e-01,2.347076944437677e+00,-9.404658324787502e-01,2.347148373004421e+00
0.006283185307180,-9.389920605474650e-01,2.344956953644658e+00,-9.388823837564612e-01,2.345242467463714e+00
0.009424777960769,-9.364924469108730e-01,2.341425658188028e+00,-9.362457463690311e-01,2.342067316200322e+00
0.012566370614359,-9.329979841903363e-01,2.336486092436906e+00,-9.325595849149376e-01,2.337624957835759e+00
0.015707963267949,-9.285136651705027e-01,2.330142505648879e+00,-9.278290275440769e-01,2.331918249755697e+00
0.018849555921539,-9.230459039916591e-01,2.322400363086981e+00,-9.220606636438867e-01,2.324950871405848e+00
0.021991148575129,-9.166025322382622e-01,2.313266347422308e+00,-9.152625408277321e-01,2.316727328501844e+00
0.025132741228718,-9.091927941074426e-01,2.302748360396710e+00,-9.074441611978873e-01,2.307252958131892e+00
0.028274333882308,-9.008273406272450e-01,2.290855524714484e+00,-8.986164768495980e-01,2.296533934726456e+00
0.031415926535898,-8.915182228895988e-01,2.277598186127243e+00,-8.887918845771916e-01,2.284577276865067e+00
0.034557519189488,-8.812788842571786e-01,2.262987915669361e+00,-8.779842197367203e-01,2.271390854884734e+00
0.037699111843078,-8.701241514992660e-01,2.247037511997134e+00,-8.662087492147376e-01,2.256983399250565e+00
0.040840704496667,-8.580702248062536e-01,2.229761003778479e+00,-8.534821634465777e-01,2.241364509643835e+00
0.043982297150257,-8.451346666283919e-01,2.211173652075027e+00,-8.398225674226161e-01,2.224544664718263e+00
0.047123889803847,-8.313363892801154e-01,2.191291952653524e+00,-8.252494706158527e-01,2.206535232470716e+00
0.050265482457437,-8.166956412468155e-01,2.170133638157389e+00,-8.097837757587654e-01,2.187348481167115e+00
0.053407075111026,-8.012339921276689e-01,2.147717680065051e+00,-7.934477663932071e-01,2.166997590760192e+00
0.056548667764616,-7.849743161442979e-01,2.124064290356186e+00,-7.762650931123075e-01,2.145496664730393e+00
0.059690260418206,-7.679407741422768e-01,2.099194922802692e+00,-7.582607584096288e-01,2.122860742277153e+00
0.062831853071796,-7.501587940091113e-01,2.073132273795675e+00,-7.394611000464150e-01,2.099105810781767e+00
0.065973445725386,-7.316550494306068e-01,2.045900282616348e+00,-7.198937728451151e-01,2.074248818459672e+00
0.069115038378975,-7.124574369047214e-01,2.017524131053269e+00,-6.995877288134722e-01,2.048307687113862e+00
0.072256631032565,-6.925950509311488e-01,1.988030242265411e+00,-6.785731955017275e-01,2.021301324897581e+00
0.075398223686155,-6.720981572929481e-01,1.957446278785538e+00,-6.568816524924905e-01,1.993249638988625e+00
0.078539816339745,-6.509981643463653e-01,1.925801139555605e+00,-6.345458059216996e-01,1.964173548073707e+00
0.081681408993335,-6.293275922344506e-01,1.893124955882059e+00,-6.115995609276506e-01,1.934094994536312e+00
0.084823001646924,-6.071200399404404e-01,1.859449086195931e+00,-5.880779919244035e-01,1.903036956236954e+00
0.087964594300514,-5.844101500979146e-01,1.824806109500187e+00,-5.640173105960536e-01,1.871023457770658e+00
0.091106186954104,-5.612335714756047e-01,1.789229817383547e+00,-5.394548315082760e-01,1.838079581081350e+00
0.094247779607694,-5.376269190574345e-01,1.752755204478907e+00,-5.144289352353530e-01,1.804231475309576e+00
0.097389372261284,-5.136277316405837e-01,1.715418457242229e+00,-4.889790289022460e-01,1.769506365745393e+00
0.100530964914873,-4.892744268775107e-01,1.677256940926182e+00,-4.631455040435108e-01,1.733932561754082e+00
0.103672557568463,-4.646062536924477e-01,1.638309184622885e+00,-4.369696916846162e-01,1.697539463539601e+00
0.106814150222053,-4.396632420068552e-01,1.598614864248622e+00,-4.104938145543453e-01,1.660357567606166e+00
0.109955742875643,-4.144861497142188e-01,1.558214783344285e+00,-3.837609363420442e-01,1.622418470775991e+00
0.113097335529233,-3.891164068504253e-01,1.517150851565257e+00,-3.568149079185450e-01,1.583754872617675e+00
0.116238928182822,-3.635960569129939e-01,1.475466060735997e+00,-3.297003104458715e-01,1.544400576137602e+00
0.119380520836412,-3.379676952900933e-01,1.433204458345971e+00,-3.024623953077477e-01,1.504390486584154e+00
0.122522113490002,-3.122744047686907e-01,1.390411118365839e+00,-2.751470208006921e-01,1.463760608212707e+00
0.125663706143592,-2.865596881005969e-01,1.347132109265888e+00,-2.478005855342218e-01,1.422548038858132e+00
0.128805298797182,-2.608673976150755e-01,1.303414459121856e+00,-2.204699584980816e-01,1.380790962160148e+00
0.131946891450771,-2.352416618778580e-01,1.259306117697899e+00,-1.932024057650575e-01,1.338528637286764e+00
0.135088484104361,-2.097268094079150e-01,1.214855915401019e+00,-1.660455138090877e-01,1.295801386000751e+00
0.138230076757951,-1.843672894760272e-01,1.170113519007130e+00,-1.390471094307634e-01,1.252650576914860e+00
0.141371669411541,-1.592075900225158e-01,1.125129384065137e+00,-1.122551762955062e-01,1.209118606782490e+00
0.144513262065130,-1.342921527457570e-01,1.079954703892991e+00,-8.571776810393945e-02,1.165248878672761e+00
0.147654854718720,-1.096652854279734e-01,1.034641355087309e+00,-5.948291842901474e-02,1.121085776881040e+00
0.150796447372310,-8.537107158050175e-02,9.892418394770998e-01,-3.359854727048538e-02,1.076674638429467e+00
0.153938040025900,-6.145327750738025e-02,9.438092224622548e-01,-8.112364394505418e-03,1.032061721016262e+00
0.157079632679490,-3.795525690305255e-02,8.983970676874808e-01,1.692823045616008e-02,9.872941672771127e-01
0.160221225333079,-1.491985311794919e-02,8.530593680143730e-01,4.147625037688030e-02,9.424199652280747e-01
0.163362817986669,7.610700755815883e-03,8.078504727664543e-01,6.548522701671074e-02,8.974879047658113e-01
0.166504410640259,2.959488380740632e-02,7.628250112355669e-01,8.890931905011806e-02,8.525475301088635e-01
0.169646003293849,5.099199104809042e-02,7.180378124519550e-01,1.117034232389067e-01,8.076490880719345e-01
0.172787595947439,7.176223875908209e-02,6.735438212359461e-01,1.338232878962630e-01,7.628434720751794e-01
0.175929188601028,9.186687121520272e-02,6.293980105648088e-01,1.552256285421315e-01,7.181821618008187e-01
0.179070781254618,1.112682685324148e-01,5.856552903057096e-01,1.758682455157329e-01,6.737171584215026e-01
0.182212373908208,1.299300553664269e-01,5.423704123831714e-01,1.957101432872256e-01,6.295009153374489e-01
0.185353966561798,1.478172101684639e-01,4.995978724684247e-01,2.147116511861214e-01,5.855862643736773e-01
0.188495559215388,1.648961746832803e-01,4.573918082973384e-01,2.328345452394701e-01,5.420263374036957e-01
0.191637151868977,1.811349633534702e-01,4.158058947440632e-01,2.500421707878984e-01,4.988744833825643e-01
0.194778744522567,1.965032722734425e-01,3.748932357982951e-01,2.662995655226738e-01,4.561841807896008e-01
0.197920337176157,2.109725873158478e-01,3.347062536161221e-01,2.815735825618507e-01,4.140089455001540e-01
0.201061929829747,2.245162910334906e-01,2.952965748362190e-01,2.958330131589556e-01,3.724022341253576e-01
0.204203522483337,2.371097679201530e-01,2.567149143766031e-01,3.090487086128881e-01,3.314173428805408e-01
0.207345115136926,2.487305075953731e-01,2.190109569498989e-01,3.211937009238806e-01,2.911073020647164e-01
0.210486707790516,2.593582054603846e-01,1.822332365593561e-01,3.322433217167533e-01,2.515247662576467e-01
0.213628300444106,2.689748603559355e-01,1.464290142613482e-01,3.421753189301579e-01,2.127219003650445e-01
0.216769893097696,2.775648687372452e-01,1.116441545048240e-01,3.509699707487148e-01,1.747502616686886e-01
0.219911485751285,2.851151148675334e-01,7.792300038210068e-02,3.586101962345268e-01,1.376606780645201e-01
0.223053078404875,2.916150565191778e-01,4.530824814993355e-02,3.650816620953081e-01,1.015031226997368e-01
0.226194671058465,2.970568056610443e-01,1.384082140388846e-02,3.703728850087867e-01,6.632658524838007e-02
0.229336263712055,3.014352036020300e-01,-1.644025468714186e-02,3.744753289072091e-01,3.217894009425028e-02
0.232477856365645,3.047478900544442e-01,-4.549797865583713e-02,3.773834966118886e-01,-8.931882797745715e-04
0.235619449019234,3.069953655769072e-01,-7.329749706767397e-02,3.790950151961240e-01,-3.284456236648476e-02
0.238761041672824,3.081810468549402e-01,-9.980622743292149e-02,3.796107144455438e-01,-6.363147081207496e-02
0.241902634326414,3.083113142788048e-01,-1.249939792030126e-01,3.789346977784296e-01,-9.321186930468632e-02
0.245044226980004,3.073955512822927e-01,-1.488330723342997e-01,3.770744049848176e-01,-1.215455227493430e-01
0.248185819633594,3.054461749136175e-01,-1.712984528837302e-01,3.740406661426964e-01,-1.485941482735232e-01
0.251327412287183,3.024786571201054e-01,-1.923678050831488e-01,3.698477460723258e-01,-1.743215585755026e-01
0.254469004940773,2.985115362425575e-01,-2.120216593234054e-01,3.645133786961294e-01,-1.986938050965092e-01
0.257610597594363,2.935664182327917e-01,-2.302434954653783e-01,3.580587906816841e-01,-2.216793204667271e-01
0.260752190247953,2.876679671294116e-01,-2.470198408830766e-01,3.505087137595795e-01,-2.432490596449391e-01
0.263893782901543,2.808438843521326e-01,-2.623403626344343e-01,3.418913851262088e-01,-2.633766391424545e-01
0.267035375555132,2.731248764043890e-01,-2.761979531481813e-01,3.322385353643795e-01,-2.820384736938316e-01
0.270176968208722,2.645446106073673e-01,-2.885888088106898e-01,3.215853633419723e-01,-2.992139097102366e-01
0.273318560862312,2.551396585262550e-01,-2.995125008350437e-01,3.099704975810192e-01,-3.148853548262126e-01
0.276460153515902,2.449494267913065e-01,-3.089720377961371e-01,2.974359436265534e-01,-3.290384028276862e-01
0.279601746169492,2.340160750624342e-01,-3.169739192202788e-01,2.840270169866148e-01,-3.416619532280396e-01
0.282743338823081,2.223844209364029e-01,-3.235281796261175e-01,2.697922612619720e-01,-3.527483247407973e-01
0.285884931476671,2.101018316502182e-01,-3.286484224255766e-01,2.547833511363598e-01,-3.622933618818798e-01
0.289026524130261,1.972181024930957e-01,-3.323518431092748e-01,2.390549799556408e-01,-3.702965339218359e-01
0.292168116783851,1.837853219021911e-01,-3.346592411606875e-01,2.226647316870363e-01,-3.767610253993872e-01
0.295309709437441,1.698577232840142e-01,-3.355950201672422e-01,2.056729371174796e-01,-3.816938174021515e-01
0.298451302091030,1.554915236739912e-01,-3.351871756247490e-01,1.881425142232266e-01,-3.851057588189439e-01
0.301592894744620,1.407447494208381e-01,-3.334672699642050e-01,1.701387927209786e-01,-3.870116267708483e-01
0.304734487398210,1.256770491597289e-01,-3.304703943670917e-01,1.517293228935178e-01,-3.874301754356181e-01
0.307876080051800,1.103494944189193e-01,-3.262351169769720e-01,1.329836688705735e-01,-3.863841724921682e-01
0.311017672705389,9.482436828763102e-02,-3.208034171614259e-01,1.139731866374251e-01,-3.839004224292120e-01
0.314159265358979,7.916494265867770e-02,-3.142206055292454e-01,9.477078713982443e-02,-3.800097759848068e-01
0.317300858012569,6.343524464680705e-02,-3.065352294632223e-01,7.545068495344745e-02,-3.747471250118078e-01
0.320442450666159,4.769981287289198e-02,-2.977989639889008e-01,5.608813308924259e-02,-3.681513820983748e-01
0.323584043319749,3.202344439404595e-02,-2.880664878640654e-01,3.675914461178854e-02,-3.602654443127811e-01
0.326725635973338,1.647093315029502e-02,-2.773953448425214e-01,1.754020185605148e-02,-3.511361404880589e-01
0.329867228626928,1.106800888787792e-03,-2.658457901386827e-01,-1.492045862122602e-03,-3.408141615146791e-01
0.333008821280518,-1.400497838390038e-02,-2.534806221963717e-01,-2.026109503538509e-02,-3.293539731684593e-01
0.336150413934108,-2.880125928262713e-02,-2.403649999459278e-01,-3.869091013618333e-02,-3.168137110664676e-01
0.339292006587698,-4.322001003297022e-02,-2.265662458177709e-01,-5.670625394084450e-02,-3.032550574156821e-01
0.342433599241287,-5.720060026099905e-02,-2.121536348678423e-01,-7.423302466709548e-02,-2.887430992977160e-01
0.345575191894877,-7.068409019611076e-02,-1.971981704602785e-01,-9.119859847749361e-02,-2.733461683178265e-01
0.348716784548467,-8.361351982440174e-02,-1.817723470449974e-01,-1.075321757957801e-01,-2.571356615376349e-01
0.351858377202057,-9.593419646019044e-02,-1.659499006620569e-01,-1.231651297814455e-01,-2.401858437083322e-01
0.354999969855647,-1.075939791395463e-01,-1.498055479001825e-01,-1.380313552107803e-01,-2.225736309242998e-01
0.358141562509236,-1.185435581828140e-01,-1.334147141332189e-01,-1.520676159213197e-01,-2.043783559258609e-01
0.361283155162826,-1.287367282240225e-01,-1.168532519548428e-01,-1.652138888919487e-01,-1.856815153938476e-01
0.364424747816416,-1.381306529645819e-01,-1.001971508280128e-01,-1.774137029540390e-01,-1.665664996973981e-01
0.367566340470006,-1.466861198776035e-01,-8.352223906068783e-02,-1.886144700608987e-01,-1.471183056794444e-01
0.370707933123596,-1.543677830683622e-01,-6.690387931261817e-02,-1.987678069845995e-01,-1.274232331911287e-01
0.373849525777185,-1.611443924866600e-01,-5.041665892863920e-02,-2.078298452620012e-01,-1.075685662161742e-01
0.376991118430775,-1.669890076888466e-01,-3.413407648127310e-02,-2.157615271765061e-01,-8.764223955850345e-02
0.380132711084365,-1.718791943617610e-01,-1.812822598861227e-02,-2.225288855398477e-01,-6.773249220021330e-02
0.383274303737955,-1.757972018485226e-01,-2.469480351639285e-03,-2.281033050300313e-01,-4.792750857159434e-02
0.386415896391545,-1.787301199574857e-01,1.277382437249788e-02,-2.324617628483362e-01,-2.831504910932598e-02
0.389557489045134,-1.806700133913066e-01,2.753570217904059e-02,-2.355870464809850e-01,-8.982071612341673e-03
0.392699081698724,-1.816140322034196e-01,4.175282606572078e-02,-2.374679463905436e-01,9.985654964038658e-03
0.395840674352314,-1.815644967745526e-01,5.536483093439887e-02,-2.380994215190579e-01,2.850394250716132e-02
0.398982267005904,-1.805289559025264e-01,6.831460861380978e-02,-2.374827355600488e-01,4.649057964722802e-02
0.402123859659494,-1.785202167145729e-01,8.054859314265843e-02,-2.356255620503533e-01,6.386572954865008e-02
0.405265452313083,-1.755563452427663e-01,9.201703443292518e-02,-2.325420564458237e-01,8.055232747156497e-02
0.408407044966673,-1.716606366497846e-01,1.026742584254514e-01,-2.282528934774494e-01,9.647647587943337e-02
0.411548637620263,-1.668615542538026e-01,1.124789118546290e-01,-2.227852682366392e-01,1.115678347751549e-01
0.414690230273853,-1.611926366774842e-01,1.213941897567134e-01,-2.161728596103082e-01,1.257600048651414e-01
0.417831822927443,-1.546923726361919e-01,1.293880438877804e-01,-2.084557548778120e-01,1.389909010799480e-01
0.420973415581032,-1.474040430839370e-01,1.364333702630345e-01,-1.996803344923664e-01,1.512031139224936e-01
0.424115008234622,-1.393755306514158e-01,1.425081740895268e-01,-1.898991162988894e-01,1.623442560718577e-01
0.427256600888212,-1.306590965375837e-01,1.475957104397871e-01,-1.791705586874254e-01,1.723672916435516e-01
0.430398193541802,-1.213111252534479e-01,1.516845991045920e-01,-1.675588224455727e-01,1.812308454970369e-01
0.433539786195391,-1.113918378626963e-01,1.547689121692635e-01,-1.551334913535011e-01,1.888994899893884e-01
0.436681378848981,-1.009649746168998e-01,1.568482329795481e-01,-1.419692518598533e-01,1.953440066013231e-01
0.439822971502571,-9.009744814152505e-02,1.579276853001649e-01,-1.281455324844565e-01,2.005416199094824e-01
0.442964564156161,-7.885896859116449e-02,1.580179316212536e-01,-1.137461039126669e-01,2.044762014475016e-01
0.446106156809751,-6.732164245599204e-02,1.571351397348924e-01,-9.885864107411978e-02,2.071384410890345e-01
0.449247749463340,-5.555954696453488e-02,1.553009168849733e-01,-8.357424883363750e-02,2.085259836989141e-01
0.452389342116930,-4.364828228796883e-02,1.525422109883972e-01,-6.798695326148679e-02,2.086435289346040e-01
0.455530934770520,-3.166450400598489e-02,1.488911786329127e-01,-5.219316079151742e-02,2.075028922392727e-01
0.458672527424110,-1.968543854124371e-02,1.443850197759419e-01,-3.629108791604313e-02,2.051230252502958e-01
0.461814120077700,-7.788384506077660e-03,1.390657792983084e-01,-2.038016440281812e-02,2.015299940526729e-01
0.464955712731289,3.949796871381044e-03,1.329801158054955e-01,-4.560413348755453e-03,1.967569139354104e-01
0.468097305384879,1.545319886662740e-02,1.261790383154993e-01,1.106818829597658e-02,1.908438395598297e-01
0.471238898038469,2.664739035938262e-02,1.187176117248098e-01,2.640636479469146e-02,1.838376097212375e-01
0.474380490692059,3.745993718265496e-02,1.106546322007808e-01,4.135620805498404e-02,1.757916461784081e-01
0.477522083345649,4.782091984309425e-02,1.020522739076702e-01,5.582185092979439e-02,1.667657063375903e-01
0.480663675999238,5.766344361718690e-02,9.297570873294131e-02,6.971014265208253e-02,1.568255899077724e-01
0.483805268652828,6.692413693848287e-02,8.349270093769715e-02,8.293132145173183e-02,1.460427999898093e-01
0.486946861306418,7.554363393270970e-02,7.367317890822743e-02,9.539967921987218e-02,1.344941594218123e-01
0.490088453960008,8.346703693263260e-02,6.358878643203690e-02,1.070342129373384e-01,1.222613835744542e-01
0.493230046613598,9.064435481473193e-02,5.331241615904404e-02,1.177592574736406e-01,1.094306111700740e-01
0.496371639267187,9.703091304699311e-02,4.291772813428647e-02,1.275050942938287e-01,9.609189508577043e-02
0.499513231920777,1.025877314227189e-01,3.247865649993070e-02,1.362085305858476e-01,8.233865549000630e-02
0.502654824574367,1.072818655804964e-01,2.206890765909508e-02,1.438134433430906e-01,6.826709805133467e-02
0.505796417227957,1.110867085760995e-01,1.176145336933700e-02,1.502712830082910e-01,5.397560034310023e-02
0.508938009881546,1.139822489785894e-01,1.628022387256686e-03,1.555415314075088e-01,3.956406994585108e-02
0.512079602535136,1.159552822103411e-01,-8.261405585074422e-03,1.595921088785774e-01,2.513327811566962e-02
0.515221195188726,1.169995721387646e-01,-1.783909979842051e-02,1.623997257280176e-01,1.078417323791067e-02
0.518362787842316,1.171159602553622e-01,-2.704006827213755e-02,1.639501734349082e-01,-3.382821382338772e-03
0.521504380495906,1.163124201441940e-01,-3.580253355699235e-02,1.642385513596256e-01,-1.726852053329365e-02
0.524645973149495,1.146040553451425e-01,-4.406839046437246e-02,1.632694251094775e-01,-3.077569577252972e-02
0.527787565803085,1.120130391553437e-01,-5.178364180517146e-02,1.610569131610080e-01,-4.380979437656920e-02
0.530929158456675,1.085684953821356e-01,-5.889880824136666e-02,1.576246988386615e-01,-5.627965296140236e-02
0.534070751110265,1.043063195596862e-01,-6.536930844978017e-02,1.530059652993102e-01,-6.809819999797979e-02
0.537212343763855,9.926894066546423e-02,-7.115580593163645e-02,1.472432517690729e-01,-7.918314131702051e-02
0.540353936417444,9.350502391779476e-02,-7.622451897361679e-02,1.403882299193369e-01,-8.945762261486941e-02
0.543495529071034,8.706911579734294e-02,-8.054749047633916e-02,1.325013999487761e-01,-9.885086294007249e-02
0.546637121724624,8.002123300848263e-02,-8.410281461420842e-02,1.236517066525968e-01,-1.072987531617139e-01
0.549778714378214,7.242639767580823e-02,-8.687481757567936e-02,1.139160765037516e-01,-1.147444134980052e-01
0.552920307031804,6.435412165073333e-02,-8.885418995403864e-02,1.033788775373030e-01,-1.211387043193479e-01
0.556061899685393,5.587784337724134e-02,-9.003806871426223e-02,9.213130461182785e-02,-1.264406846357634e-01
0.559203492338983,4.707432132799743e-02,-9.043006704936901e-02,8.027069341335272e-02,-1.306180129354299e-01
0.562345084992573,3.802298856586247e-02,-9.004025085748354e-02,6.789976736017320e-02,-1.336472853595956e-01
0.565486677646163,2.880527350457250e-02,-8.888506101571897e-02,5.512582235261301e-02,-1.355143065794359e-01
0.568628270299752,1.950389242941660e-02,-8.698718109563196e-02,4.205985508186106e-02,-1.362142891816932e-01
0.571769862953342,1.020211978741862e-02,-8.437535065368856e-02,2.881564135747989e-02,-1.357519778708781e-01
0.574911455606932,9.830426602112233e-04,-8.108412473477747e-02,1.550877162483048e-02,-1.341416953542880e-01
0.578053048260522,-8.071193814833033e-03,-7.715358074280465e-02,2.255651512357917e-03,-1.314073073892448e-01
