theta,real(S11),imag(S11),real(S22),imag(S22)
0.000000000000000,-2.625873922261841e-01,8.088734256904495e-01,-2.625873922223452e-01,8.088734257238384e-01
0.003141592653590,-2.625794506917707e-01,8.088523270579693e-01,-2.625774655083824e-01,8.088582028857854e-01
0.006283185307180,-2.625556259573290e-01,8.087890292962208e-01,-2.625476852191915e-01,8.088125312906960e-01
0.009424777960769,-2.625159176299102e-01,8.086835268146092e-01,-2.624980509137808e-01,8.087364016975273e-01
0.012566370614359,-2.624603250567799e-01,8.085358103032269e-01,-2.624285618602092e-01,8.086297987103486e-01
0.015707963267949,-2.623888473286923e-01,8.083458667444851e-01,-2.623392170401609e-01,8.084927007870605e-01
0.018849555921539,-2.623014832844681e-01,8.081136794293861e-01,-2.622300151553384e-01,8.083250802515999e-01
0.021991148575129,-2.621982315168787e-01,8.078392279784566e-01,-2.621009546356887e-01,8.081269033096358e-01
0.025132741228718,-2.620790903798400e-01,8.075224883673191e-01,-2.619520336494492e-01,8.078981300677708e-01
0.028274333882308,-2.619440579969018e-01,8.071634329569078e-01,-2.617832501150149e-01,8.076387145562317e-01
0.031415926535898,-2.617931322710420e-01,8.067620305283368e-01,-2.615946017146288e-01,8.073486047550775e-01
0.034557519189488,-2.616263108957562e-01,8.063182463223949e-01,-2.613860859098829e-01,8.070277426239137e-01
0.037699111843078,-2.614435913674422e-01,8.058320420836913e-01,-2.611576999590390e-01,8.066760641351319e-01
0.040840704496667,-2.612449709990762e-01,8.053033761094254e-01,-2.609094409361527e-01,8.062934993106805e-01
0.043982297150257,-2.610304469351721e-01,8.047322033027819e-01,-2.606413057520049e-01,8.058799722623609e-01
0.047123889803847,-2.608000161680284e-01,8.041184752309675e-01,-2.603532911768368e-01,8.054354012356901e-01
0.050265482457437,-2.605536755552497e-01,8.034621401878479e-01,-2.600453938648767e-01,8.049596986573077e-01
0.053407075111026,-2.602914218385401e-01,8.027631432612093e-01,-2.597176103806575e-01,8.044527711859526e-01
0.056548667764616,-2.600132516637668e-01,8.020214264046230e-01,-2.593699372271203e-01,8.039145197670253e-01
0.059690260418206,-2.597191616022821e-01,8.012369285139135e-01,-2.590023708754960e-01,8.033448396907426e-01
0.062831853071796,-2.594091481735020e-01,8.004095855082169e-01,-2.586149077969552e-01,8.027436206538952e-01
0.065973445725386,-2.590832078687321e-01,7.995393304156274e-01,-2.582075444960257e-01,8.021107468252281e-01
0.069115038378975,-2.587413371762330e-01,7.986260934634092e-01,-2.577802775457616e-01,8.014460969144479e-01
0.072256631032565,-2.583835326075216e-01,7.976698021727906e-01,-2.573331036246630e-01,8.007495442448918e-01
0.075398223686155,-2.580097907248953e-01,7.966703814582998e-01,-2.568660195553341e-01,8.000209568298460e-01
0.078539816339745,-2.576201081701724e-01,7.956277537316471e-01,-2.563790223448683e-01,7.992601974525506e-01
0.081681408993335,-2.572144816946419e-01,7.945418390101456e-01,-2.558721092269541e-01,7.984671237498978e-01
0.084823001646924,-2.567929081902066e-01,7.934125550296338e-01,-2.553452777056857e-01,7.976415882998378e-01
0.087964594300514,-2.563553847217194e-01,7.922398173619202e-01,-2.547985256010771e-01,7.967834387125178e-01
0.091106186954104,-2.559019085604919e-01,7.910235395366990e-01,-2.542318510962535e-01,7.958925177251592e-01
0.094247779607694,-2.554324772189704e-01,7.897636331679451e-01,-2.536452527863205e-01,7.949686633006947e-01
0.097389372261284,-2.549470884865690e-01,7.884600080847606e-01,-2.530387297288906e-01,7.940117087301946e-01
0.100530964914873,-2.544457404666384e-01,7.871125724666519e-01,-2.524122814962539e-01,7.930214827390687e-01
0.103672557568463,-2.539284316145700e-01,7.857212329832181e-01,-2.517659082291800e-01,7.919978095970935e-01
0.106814150222053,-2.533951607770137e-01,7.842858949382359e-01,-2.510996106923351e-01,7.909405092322658e-01
0.109955742875643,-2.528459272321971e-01,7.828064624181035e-01,-2.504133903312981e-01,7.898493973484928e-01
0.113097335529233,-2.522807307313338e-01,7.812828384446316e-01,-2.497072493311585e-01,7.887242855471566e-01
0.116238928182822,-2.516995715411031e-01,7.797149251321446e-01,-2.489811906766758e-01,7.875649814525411e-01
0.119380520836412,-2.511024504871880e-01,7.781026238488723e-01,-2.482352182139906e-01,7.863712888411682e-01
0.122522113490002,-2.504893689988535e-01,7.764458353825945e-01,-2.474693367138542e-01,7.851430077750295e-01
0.125663706143592,-2.498603291545469e-01,7.747444601105098e-01,-2.466835519363698e-01,7.838799347387500e-01
0.128805298797182,-2.492153337285063e-01,7.729983981732903e-01,-2.458778706972140e-01,7.825818627806855e-01
0.131946891450771,-2.485543862383564e-01,7.712075496532997e-01,-2.450523009353246e-01,7.812485816579769e-01
0.135088484104361,-2.478774909936721e-01,7.693718147569144e-01,-2.442068517820232e-01,7.798798779855627e-01
0.138230076757951,-2.471846531454935e-01,7.674910940009271e-01,-2.433415336315567e-01,7.784755353891760e-01
0.141371669411541,-2.464758787367667e-01,7.655652884029795e-01,-2.424563582130260e-01,7.770353346623248e-01
0.144513262065130,-2.457511747536945e-01,7.635942996759815e-01,-2.415513386636789e-01,7.755590539272724e-01
0.147654854718720,-2.450105491779745e-01,7.615780304264738e-01,-2.406264896035424e-01,7.740464688000303e-01
0.150796447372310,-2.442540110398967e-01,7.595163843568753e-01,-2.396818272113586e-01,7.724973525593619e-01
0.153938040025900,-2.434815704722837e-01,7.574092664715680e-01,-2.387173693018028e-01,7.709114763198106e-01
0.157079632679490,-2.426932387652475e-01,7.552565832867697e-01,-2.377331354039490e-01,7.692886092087617e-01
0.160221225333079,-2.418890284217362e-01,7.530582430441232e-01,-2.367291468409523e-01,7.676285185475320e-01
0.163362817986669,-2.410689532138459e-01,7.508141559279528e-01,-2.357054268109130e-01,7.659309700364976e-01
0.166504410640259,-2.402330282398722e-01,7.485242342861171e-01,-2.346620004688935e-01,7.641957279442585e-01
0.169646003293849,-2.393812699820751e-01,7.461883928544009e-01,-2.335988950100485e-01,7.624225553008425e-01
0.172787595947439,-2.385136963651235e-01,7.438065489843603e-01,-2.325161397538301e-01,7.606112140949359e-01
0.175929188601028,-2.376303268151977e-01,7.413786228745644e-01,-2.314137662292353e-01,7.587614654751517e-01
0.179070781254618,-2.367311823197161e-01,7.389045378051493e-01,-2.302918082610551e-01,7.568730699553172e-01
0.182212373908208,-2.358162854876541e-01,7.363842203756048e-01,-2.291503020570802e-01,7.549457876237776e-01
0.185353966561798,-2.348856606104271e-01,7.338176007457066e-01,-2.279892862962263e-01,7.529793783567014e-01
0.188495559215388,-2.339393337233038e-01,7.312046128795249e-01,-2.268088022175352e-01,7.509736020353841e-01
0.191637151868977,-2.329773326673138e-01,7.285451947923904e-01,-2.256088937100034e-01,7.489282187675175e-01
0.194778744522567,-2.319996871516212e-01,7.258392888007581e-01,-2.243896074031978e-01,7.468429891124296e-01
0.197920337176157,-2.310064288163209e-01,7.230868417748327e-01,-2.231509927586024e-01,7.447176743102504e-01
0.201061929829747,-2.299975912956299e-01,7.202878053938914e-01,-2.218931021616581e-01,7.425520365150016e-01
0.204203522483337,-2.289732102814309e-01,7.174421364041736e-01,-2.206159910144355e-01,7.403458390315711e-01
0.207345115136926,-2.279333235871302e-01,7.145497968792360e-01,-2.193197178288901e-01,7.380988465565429e-01
0.210486707790516,-2.268779712117980e-01,7.116107544826640e-01,-2.180043443206554e-01,7.358108254228660e-01
0.213628300444106,-2.258071954045387e-01,7.086249827330100e-01,-2.166699355033019e-01,7.334815438483031e-01
0.216769893097696,-2.247210407290640e-01,7.055924612708511e-01,-2.153165597830226e-01,7.311107721876388e-01
0.219911485751285,-2.236195541284177e-01,7.025131761278313e-01,-2.139442890536748e-01,7.286982831886046e-01
0.223053078404875,-2.225027849898129e-01,6.993871199975558e-01,-2.125531987921242e-01,7.262438522514612e-01
0.226194671058465,-2.213707852095383e-01,6.962142925082124e-01,-2.111433681538264e-01,7.237472576922059e-01
0.229336263712055,-2.202236092578870e-01,6.929947004967671e-01,-2.097148800685844e-01,7.212082810093426e-01
0.232477856365645,-2.190613142440662e-01,6.897283582846085e-01,-2.082678213364191e-01,7.186267071541604e-01
0.235619449019234,-2.178839599810349e-01,6.864152879544685e-01,-2.068022827234794e-01,7.160023248044622e-01
0.238761041672824,-2.166916090502296e-01,6.830555196284914e-01,-2.053183590579335e-01,7.133349266416750e-01
0.241902634326414,-2.154843268661233e-01,6.796490917472747e-01,-2.038161493257633e-01,7.106243096312793e-01
0.245044226980004,-2.142621817405730e-01,6.761960513497325e-01,-2.022957567663952e-01,7.078702753064776e-01
0.248185819633594,-2.130252449469014e-01,6.726964543536026e-01,-2.007572889680919e-01,7.050726300550308e-01
0.251327412287183,-2.117735907836667e-01,6.691503658364385e-01,-1.992008579630317e-01,7.022311854091803e-01
0.254469004940773,-2.105072966380639e-01,6.655578603169018e-01,-1.976265803219999e-01,6.993457583385649e-01
0.257610597594363,-2.092264430489041e-01,6.619190220361696e-01,-1.960345772486079e-01,6.964161715460476e-01
0.260752190247953,-2.079311137691248e-01,6.582339452392844e-01,-1.944249746729703e-01,6.934422537663530e-01
0.263893782901543,-2.066213958277681e-01,6.545027344562463e-01,-1.927979033447504e-01,6.904238400674206e-01
0.267035375555132,-2.052973795913759e-01,6.507255047826488e-01,-1.911534989254939e-01,6.873607721543556e-01
0.270176968208722,-2.039591588247445e-01,6.469023821596698e-01,-1.894919020801662e-01,6.842528986758870e-01
0.273318560862312,-2.026068307509819e-01,6.430335036531990e-01,-1.878132585678077e-01,6.811000755332012e-01
0.276460153515902,-2.012404961108074e-01,6.391190177319007e-01,-1.861177193312157e-01,6.779021661910312e-01
0.279601746169492,-1.998602592210388e-01,6.351590845439964e-01,-1.844054405855684e-01,6.746590419908923e-01
0.282743338823081,-1.984662280322037e-01,6.311538761925432e-01,-1.826765839058961e-01,6.713705824663112e-01
0.285884931476671,-1.970585141852161e-01,6.271035770089877e-01,-1.809313163133073e-01,6.680366756599256e-01
0.289026524130261,-1.956372330670568e-01,6.230083838247616e-01,-1.791698103598773e-01,6.646572184423081e-01
0.292168116783851,-1.942025038653970e-01,6.188685062406960e-01,-1.773922442121023e-01,6.612321168323662e-01
0.295309709437441,-1.927544496221009e-01,6.146841668940041e-01,-1.755988017328222e-01,6.577612863191707e-01
0.298451302091030,-1.912931972855448e-01,6.104556017225919e-01,-1.737896725615121e-01,6.542446521850382e-01
0.301592894744620,-1.898188777616909e-01,6.061830602264642e-01,-1.719650521928468e-01,6.506821498297282e-01
0.304734487398210,-1.883316259638479e-01,6.018668057259504e-01,-1.701251420534305e-01,6.470737250955535e-01
0.307876080051800,-1.868315808610564e-01,5.975071156165123e-01,-1.682701495765939e-01,6.434193345932556e-01
0.311017672705389,-1.853188855250342e-01,5.931042816198715e-01,-1.664002882751542e-01,6.397189460284417e-01
0.314159265358979,-1.837936871756126e-01,5.886586100311832e-01,-1.645157778120310e-01,6.359725385284100e-01
0.317300858012569,-1.822561372246026e-01,5.841704219620035e-01,-1.626168440686129e-01,6.321801029691587e-01
0.320442450666159,-1.807063913180185e-01,5.796400535787583e-01,-1.607037192107668e-01,6.283416423023815e-01
0.323584043319749,-1.791446093765979e-01,5.750678563364606e-01,-1.587766417523832e-01,6.244571718822480e-01
0.326725635973338,-1.775709556345475e-01,5.704541972073806e-01,-1.568358566163445e-01,6.205267197917468e-01
0.329867228626928,-1.759855986764479e-01,5.657994589043904e-01,-1.548816151928100e-01,6.165503271683832e-01
0.333008821280518,-1.743887114722518e-01,5.611040400987041e-01,-1.529141753947033e-01,6.125280485290008e-01
0.336150413934108,-1.727804714103049e-01,5.563683556317125e-01,-1.509338017102907e-01,6.084599520934967e-01
0.339292006587698,-1.711610603283259e-01,5.515928367206305e-01,-1.489407652527387e-01,6.043461201071955e-01
0.342433599241287,-1.695306645422740e-01,5.467779311576588e-01,-1.469353438065366e-01,6.001866491616422e-01
0.345575191894877,-1.678894748730394e-01,5.419241035023603e-01,-1.449178218706691e-01,5.959816505135572e-01
0.348716784548467,-1.662376866708872e-01,5.370318352669565e-01,-1.428884906984272e-01,5.917312504017100e-01
0.351858377202057,-1.645754998375887e-01,5.321016250942382e-01,-1.408476483337392e-01,5.874355903614388e-01
0.354999969855647,-1.629031188461730e-01,5.271339889277867e-01,-1.387955996439092e-01,5.830948275365622e-01
0.358141562509236,-1.612207527582312e-01,5.221294601742037e-01,-1.367326563486455e-01,5.787091349884027e-01
0.361283155162826,-1.595286152387082e-01,5.170885898570406e-01,-1.346591370452677e-01,5.742787020016484e-01
0.364424747816416,-1.578269245681154e-01,5.120119467621186e-01,-1.325753672299709e-01,5.698037343867648e-01
0.367566340470006,-1.561159036520978e-01,5.069001175739302e-01,-1.304816793150359e-01,5.652844547786766e-01
0.370707933123596,-1.543957800282938e-01,5.017537070028175e-01,-1.283784126418719e-01,5.607211029314163e-01
0.373849525777185,-1.526667858704206e-01,4.965733379026096e-01,-1.262659134897700e-01,5.561139360084443e-01
0.376991118430775,-1.509291579895221e-01,4.913596513784149e-01,-1.241445350802618e-01,5.514632288683378e-01
0.380132711084365,-1.491831378323183e-01,4.861133068842549e-01,-1.220146375769623e-01,5.467692743455304e-01
0.383274303737955,-1.474289714765940e-01,4.808349823102374e-01,-1.198765880807899e-01,5.420323835258025e-01
0.386415896391545,-1.456669096235639e-01,4.755253740589453e-01,-1.177307606204457e-01,5.372528860161854e-01
0.389557489045134,-1.438972075871577e-01,4.701851971107548e-01,-1.155775361380463e-01,5.324311302089673e-01
0.392699081698724,-1.421201252801639e-01,4.648151850777578e-01,-1.134173024697963e-01,5.275674835394711e-01
0.395840674352314,-1.403359271971773e-01,4.594160902459994e-01,-1.112504543215935e-01,5.226623327372641e-01
0.398982267005904,-1.385448823942905e-01,4.539886836057160e-01,-1.090773932394573e-01,5.177160840704700e-01
0.402123859659494,-1.367472644654810e-01,4.485337548692943e-01,-1.068985275746801e-01,5.127291635828436e-01
0.405265452313083,-1.349433515156324e-01,4.430521124766269e-01,-1.047142724435876e-01,5.077020173232514e-01
0.408407044966673,-1.331334261301466e-01,4.375445835876065e-01,-1.025250496818166e-01,5.026351115672306e-01
0.411548637620263,-1.313177753410907e-01,4.320120140614389e-01,-1.003312877930020e-01,4.975289330302546e-01
0.414690230273853,-1.294966905898322e-01,4.264552684225099e-01,-9.813342189177768e-02,4.923839890723645e-01
0.417831822927443,-1.276704676861199e-01,4.208752298125242e-01,-9.593189364099690e-02,4.872008078938090e-01
0.420973415581032,-1.258394067635584e-01,4.152727999286309e-01,-9.372715118307469e-02,4.819799387213248e-01
0.424115008234622,-1.240038122314420e-01,4.096488989472811e-01,-9.151964906536629e-02,4.767219519847084e-01
0.427256600888212,-1.221639927229017e-01,4.040044654335434e-01,-8.930984815948918e-02,4.714274394833079e-01
0.430398193541802,-1.203202610393306e-01,3.983404562356312e-01,-8.709821557450834e-02,4.660970145420777e-01
0.433539786195391,-1.184729340910497e-01,3.926578463643774e-01,-8.488522456389691e-02,4.607313121568191e-01
0.436681378848981,-1.166223328341832e-01,3.869576288574322e-01,-8.267135442620098e-02,4.553309891282568e-01
0.439822971502571,-1.147687822037084e-01,3.812408146279317e-01,-8.045709039932589e-02,4.498967241845696e-01
0.442964564156161,-1.129126110426581e-01,3.755084322974270e-01,-7.824292354838062e-02,4.444292180920202e-01
0.446106156809751,-1.110541520274429e-01,3.697615280128448e-01,-7.602935064700567e-02,4.389291937533092e-01
0.449247749463340,-1.091937415892756e-01,3.640011652472740e-01,-7.381687405212563e-02,4.333973962932933e-01
0.452389342116930,-1.073317198316746e-01,3.582284245843831e-01,-7.160600157206541e-02,4.278345931316976e-01
0.455530934770520,-1.054684304440320e-01,3.524444034862771e-01,-6.939724632797627e-02,4.222415740424674e-01
0.458672527424110,-1.036042206112301e-01,3.466502160446160e-01,-6.719112660852054e-02,4.166191511993864e-01
0.461814120077700,-1.017394409192958e-01,3.408469927148295e-01,-6.498816571777129e-02,4.109681592076163e-01
0.464955712731289,-9.987444525708535e-02,3.350358800332707e-01,-6.278889181628328e-02,4.052894551207837e-01
0.468097305384879,-9.800959071399734e-02,3.292180403171714e-01,-6.059383775530566e-02,3.995839184432855e-01
0.471238898038469,-9.614523747370729e-02,3.233946513472596e-01,-5.840354090409888e-02,3.938524511174343e-01
0.474380490692059,-9.428174870393469e-02,3.175669060329361e-01,-5.621854297034120e-02,3.880959774951308e-01
0.477522083345649,-9.241949044223893e-02,3.117360120598901e-01,-5.403938981359481e-02,3.823154442936914e-01
0.480663675999238,-9.055883147786190e-02,3.059031915200777e-01,-5.186663125182896e-02,3.765118205355202e-01
0.483805268652828,-8.870014322962598e-02,3.000696805239863e-01,-4.970082086098745e-02,3.706860974712832e-01
0.486946861306418,-8.684379961990699e-02,2.942367287951175e-01,-4.754251576760237e-02,3.648392884862637e-01
0.490088453960008,-8.499017694470098e-02,2.884055992466574e-01,-4.539227643445944e-02,3.589724289895849e-01
0.493230046613598,-8.313965373981262e-02,2.825775675402953e-01,-4.325066643932799e-02,3.530865762859861e-01
0.496371639267187,-8.129261064319142e-02,2.767539216271859e-01,-4.111825224677471e-02,3.471828094298558e-01
0.499513231920777,-7.944943025345048e-02,2.709359612710578e-01,-3.899560297308749e-02,3.412622290612211e-01
0.502654824574367,-7.761049698460581e-02,2.651249975534964e-01,-3.688329014434420e-02,3.353259572234197e-01
0.505796417227957,-7.577619691707455e-02,2.593223523614329e-01,-3.478188744766459e-02,3.293751371621672e-01
0.508938009881546,-7.394691764498157e-02,2.535293578569104e-01,-3.269197047569637e-02,3.234109331057639e-01
0.512079602535136,-7.212304811982076e-02,2.477473559291939e-01,-3.061411646438914e-02,3.174345300261809e-01
0.515221195188726,-7.030497849052993e-02,2.419776976293346e-01,-2.854890402412255e-02,3.114471333807908e-01
0.518362787842316,-6.849309994003172e-02,2.362217425872888e-01,-2.649691286425575e-02,3.054499688344942e-01
0.521504380495906,-6.668780451831058e-02,2.304808584117463e-01,-2.445872351118314e-02,2.994442819620462e-01
0.524645973149495,-6.488948497208817e-02,2.247564200728110e-01,-2.243491701997980e-02,2.934313379303543e-01
0.527787565803085,-6.309853457117297e-02,2.190498092677223e-01,-2.042607467973596e-02,2.874124211605726e-01
0.530929158456675,-6.131534693155726e-02,2.133624137698055e-01,-1.843277771268124e-02,2.813888349697984e-01
0.534070751110265,-5.954031583534709e-02,2.076956267608848e-01,-1.645560696721708e-02,2.753619011922220e-01
0.537212343763855,-5.777383504760678e-02,2.020508461473883e-01,-1.449514260497326e-02,2.693329597795658e-01
0.540353936417444,-5.601629813021135e-02,1.964294738604154e-01,-1.255196378202367e-02,2.633033683806931e-01
0.543495529071034,-5.426809825280129e-02,1.908329151400558e-01,-1.062664832439873e-02,2.572745019002636e-01
0.546637121724624,-5.252962800093822e-02,1.852625778042601e-01,-8.719772398042849e-03,2.512477520363342e-01
0.549778714378214,-5.080127918156679e-02,1.797198715026005e-01,-6.831910173374247e-03,2.452245267968292e-01
0.552920307031804,-4.908344262589100e-02,1.742062069552718e-01,-4.963633484614400e-03,2.392062499948084e-01
0.556061899685393,-4.737650798978024e-02,1.687229951777171e-01,-3.115511484063277e-03,2.331943607225019e-01
0.559203492338983,-4.568086355181883e-02,1.632716466912649e-01,-1.288110291502040e-03,2.271903128040658e-01
0.562345084992573,-4.399689600912733e-02,1.578535707202187e-01,5.180073610773876e-04,2.211955742270750e-01
0.565486677646163,-4.232499027107677e-02,1.524701743758315e-01,2.302282489217857e-03,2.152116265527498e-01
0.568628270299752,-4.066552925103188e-02,1.471228618276472e-01,4.064160220000736e-03,2.092399643049639e-01
0.571769862953342,-3.901889365625697e-02,1.418130334626959e-01,5.803090160087659e-03,2.032820943380872e-01
0.574911455606932,-3.738546177612385e-02,1.365420850330628e-01,7.518526767569531e-03,1.973395351837381e-01
