theta,real(S11),imag(S11),real(S22),imag(S22)
0.000000000000000,1.536681554949605e-01,3.329451017656256e-01,1.536681560101278e-01,3.329451018875764e-01
0.003141592653590,1.536269850007807e-01,3.329402800111440e-01,1.536912456025132e-01,3.329452507396635e-01
0.006283185307180,1.535034787024034e-01,3.329258129501699e-01,1.537605090864197e-01,3.329456938670600e-01
0.009424777960769,1.532976521572269e-01,3.329016951911568e-01,1.538759305853531e-01,3.329464209860676e-01
0.012566370614359,1.530095313101907e-01,3.328679177513780e-01,1.540374836306774e-01,3.329474149576339e-01
0.015707963267949,1.526391525177068e-01,3.328244680617117e-01,1.542451311498918e-01,3.329486517880257e-01
0.018849555921539,1.521865625811075e-01,3.327713299733355e-01,1.544988254502541e-01,3.329501006297848e-01
0.021991148575129,1.516518187896322e-01,3.327084837663412e-01,1.547985081977431e-01,3.329517237829667e-01
0.025132741228718,1.510349889729152e-01,3.326359061602705e-01,1.551441103913908e-01,3.329534766966786e-01
0.028274333882308,1.503361515629105e-01,3.325535703265719e-01,1.555355523330267e-01,3.329553079709360e-01
0.031415926535898,1.495553956652671e-01,3.324614459029899e-01,1.559727435924370e-01,3.329571593588442e-01
0.034557519189488,1.486928211400573e-01,3.323594990098840e-01,1.564555829680060e-01,3.329589657691307e-01
0.037699111843078,1.477485386918367e-01,3.322476922684908e-01,1.569839584428628e-01,3.329606552690529e-01
0.040840704496667,1.467226699689559e-01,3.321259848211274e-01,1.575577471365965e-01,3.329621490876978e-01
0.043982297150257,1.456153476720833e-01,3.319943323533504e-01,1.581768152525717e-01,3.329633616197050e-01
0.047123889803847,1.444267156718413e-01,3.318526871180714e-01,1.588410180209267e-01,3.329642004294456e-01
0.050265482457437,1.431569291354876e-01,3.317009979616445e-01,1.595501996373028e-01,3.329645662556840e-01
0.053407075111026,1.418061546625644e-01,3.315392103519245e-01,1.603041931973705e-01,3.329643530167560e-01
0.056548667764616,1.403745704294038e-01,3.313672664083128e-01,1.611028206272447e-01,3.329634478163088e-01
0.059690260418206,1.388623663424191e-01,3.311851049337985e-01,1.619458926098385e-01,3.329617309496348e-01
0.062831853071796,1.372697442000430e-01,3.309926614490028e-01,1.628332085072706e-01,3.329590759106399e-01
0.065973445725386,1.355969178632309e-01,3.307898682282371e-01,1.637645562793923e-01,3.329553493995016e-01
0.069115038378975,1.338441134343918e-01,3.305766543375881e-01,1.647397123985364e-01,3.329504113310476e-01
0.072256631032565,1.320115694446250e-01,3.303529456750388e-01,1.657584417605942e-01,3.329441148439222e-01
0.075398223686155,1.300995370491396e-01,3.301186650126370e-01,1.668204975925095e-01,3.329363063105756e-01
0.078539816339745,1.281082802306939e-01,3.298737320407240e-01,1.679256213563197e-01,3.329268253481433e-01
0.081681408993335,1.260380760109363e-01,3.296180634142348e-01,1.690735426498404e-01,3.329155048302627e-01
0.084823001646924,1.238892146694616e-01,3.293515728010801e-01,1.702639791041312e-01,3.329021708998922e-01
0.087964594300514,1.216619999704560e-01,3.290741709326262e-01,1.714966362778514e-01,3.328866429831896e-01
0.091106186954104,1.193567493967245e-01,3.287857656562840e-01,1.727712075486563e-01,3.328687338045160e-01
0.094247779607694,1.169737943909490e-01,3.284862619902170e-01,1.740873740017568e-01,3.328482494026279e-01
0.097389372261284,1.145134806039885e-01,3.281755621801828e-01,1.754448043157871e-01,3.328249891481290e-01
0.100530964914873,1.119761681500107e-01,3.278535657585209e-01,1.768431546461403e-01,3.327987457622504e-01
0.103672557568463,1.093622318682796e-01,3.275201696053018e-01,1.782820685059066e-01,3.327693053370265e-01
0.106814150222053,1.066720615913765e-01,3.271752680116419e-01,1.797611766445874e-01,3.327364473569514e-01
0.109955742875643,1.039060624196318e-01,3.268187527452051e-01,1.812800969247469e-01,3.326999447221796e-01
0.113097335529233,1.010646550015635e-01,3.264505131178995e-01,1.828384341967661e-01,3.326595637733632e-01
0.116238928182822,9.814827582006046e-02,3.260704360557783e-01,1.844357801718821e-01,3.326150643181885e-01
0.119380520836412,9.515737748410197e-02,3.256784061711632e-01,1.860717132936875e-01,3.325661996597178e-01
0.122522113490002,9.209242902573329e-02,3.252743058369934e-01,1.877457986082814e-01,3.325127166265923e-01
0.125663706143592,8.895391620204890e-02,3.248580152634159e-01,1.894575876332672e-01,3.324543556052152e-01
0.128805298797182,8.574234180193034e-02,3.244294125766260e-01,1.912066182257831e-01,3.323908505739666e-01
0.131946891450771,8.245822595723981e-02,3.239883738999694e-01,1.929924144497858e-01,3.323219291395740e-01
0.135088484104361,7.910210645819976e-02,3.235347734373086e-01,1.948144864427809e-01,3.322473125757049e-01
0.138230076757951,7.567453907265420e-02,3.230684835586706e-01,1.966723302822302e-01,3.321667158638916e-01
0.141371669411541,7.217609786891659e-02,3.225893748881761e-01,1.985654278518440e-01,3.320798477368704e-01
0.144513262065130,6.860737554188540e-02,3.220973163942610e-01,2.004932467079939e-01,3.319864107244401e-01
0.147654854718720,6.496898374211894e-02,3.215921754821958e-01,2.024552399464672e-01,3.318861012019330e-01
0.150796447372310,6.126155340751196e-02,3.210738180889057e-01,2.044508460698180e-01,3.317786094414019e-01
0.153938040025900,5.748573509726244e-02,3.205421087800954e-01,2.064794888555391e-01,3.316636196656167e-01
0.157079632679490,5.364219932775845e-02,3.199969108496871e-01,2.085405772253197e-01,3.315408101049828e-01
0.160221225333079,4.973163691004276e-02,3.194380864215625e-01,2.106335051156271e-01,3.314098530574717e-01
0.163362817986669,4.575475928846379e-02,3.188654965536213e-01,2.127576513498914e-01,3.312704149516811e-01
0.166504410640259,4.171229888015819e-02,3.182790013441457e-01,2.149123795125397e-01,3.311221564131179e-01
0.169646003293849,3.760500941496166e-02,3.176784600404756e-01,2.170970378251640e-01,3.309647323338229e-01
0.172787595947439,3.343366627535206e-02,3.170637311499863e-01,2.193109590250936e-01,3.307977919454276e-01
0.175929188601028,2.919906683601493e-02,3.164346725533638e-01,2.215534602466573e-01,3.306209788957715e-01
0.179070781254618,2.490203080263690e-02,3.157911416201767e-01,2.238238429054073e-01,3.304339313291682e-01
0.182212373908208,2.054340054944993e-02,3.151329953267288e-01,2.261213925856287e-01,3.302362819704460e-01
0.185353966561798,1.612404145514539e-02,3.144600903761850e-01,2.284453789313923e-01,3.300276582128608e-01
0.188495559215388,1.164484223667113e-02,3.137722833209619e-01,2.307950555414865e-01,3.298076822099987e-01
0.191637151868977,7.106715280471335e-03,3.130694306873635e-01,2.331696598685144e-01,3.295759709717749e-01
0.194778744522567,2.510596970705547e-03,3.123513891024531e-01,2.355684131224758e-01,3.293321364646417e-01
0.197920337176157,-2.142551986050645e-03,3.116180154231343e-01,2.379905201791567e-01,3.290757857161110e-01
0.201061929829747,-6.851746240077388e-03,3.108691668674314e-01,2.404351694936332e-01,3.288065209237127e-01
0.204203522483337,-1.161597548227166e-02,3.101047011479423e-01,2.429015330192278e-01,3.285239395684824e-01
0.207345115136926,-1.643420413291314e-02,3.093244766074333e-01,2.453887661322501e-01,3.282276345331074e-01
0.210486707790516,-2.130537103590420e-02,3.085283523565659e-01,2.478960075628373e-01,3.279171942248240e-01
0.213628300444106,-2.622838915907587e-02,3.077161884137052e-01,2.504223793322669e-01,3.275922027031835e-01
0.216769893097696,-3.120214530102367e-02,3.068878458467955e-01,2.529669866970445e-01,3.272522398127946e-01
0.219911485751285,-3.622549980506321e-02,3.060431869172615e-01,2.555289181001462e-01,3.268968813211451e-01
0.223053078404875,-4.129728628084477e-02,3.051820752258961e-01,2.581072451297501e-01,3.265256990616142e-01
0.226194671058465,-4.641631133416626e-02,3.043043758607027e-01,2.607010224858055e-01,3.261382610817736e-01
0.229336263712055,-5.158135430559325e-02,3.034099555466405e-01,2.633092879548143e-01,3.257341317970879e-01
0.232477856365645,-5.679116701841614e-02,3.024986827972359e-01,2.659310623931613e-01,3.253128721501123e-01
0.235619449019234,-6.204447353657454e-02,3.015704280680066e-01,2.685653497193781e-01,3.248740397752853e-01
0.238761041672824,-6.733996993310881e-02,3.006250639116469e-01,2.712111369156850e-01,3.244171891694210e-01
0.241902634326414,-7.267632406975737e-02,2.996624651349248e-01,2.738673940391944e-01,3.239418718679924e-01
0.245044226980004,-7.805217538829881e-02,2.986825089572291e-01,2.765330742431300e-01,3.234476366272989e-01
0.248185819633594,-8.346613471426849e-02,2.976850751707049e-01,2.792071138084475e-01,3.229340296126136e-01
0.251327412287183,-8.891678407364760e-02,2.966700463019192e-01,2.818884321862129e-01,3.224005945923960e-01
0.254469004940773,-9.440267652317579e-02,2.956373077749841e-01,2.845759320511203e-01,3.218468731386553e-01
0.257610597594363,-9.992233599492230e-02,2.945867480760674e-01,2.872684993665281e-01,3.212724048335509e-01
0.260752190247953,-1.054742571557352e-01,2.935182589192193e-01,2.899650034613729e-01,3.206767274823048e-01
0.263893782901543,-1.110569052822352e-01,2.924317354134349e-01,2.926642971193468e-01,3.200593773325074e-01
0.267035375555132,-1.166687161519956e-01,2.913270762308715e-01,2.953652166807063e-01,3.194198892998801e-01
0.270176968208722,-1.223080959515758e-01,2.902041837761387e-01,2.980665821570960e-01,3.187577972005787e-01
0.273318560862312,-1.279734212020470e-01,2.890629643565666e-01,3.007671973597415e-01,3.180726339900833e-01
0.276460153515902,-1.336630387026910e-01,2.879033283533669e-01,3.034658500413974e-01,3.173639320087464e-01
0.279601746169492,-1.393752654935380e-01,2.867251903935840e-01,3.061613120524180e-01,3.166312232340557e-01
0.282743338823081,-1.451083888373963e-01,2.855284695227437e-01,3.088523395113062e-01,3.158740395396533e-01
0.285884931476671,-1.508606662220646e-01,2.843130893780865e-01,3.115376729901174e-01,3.150919129611627e-01
0.289026524130261,-1.566303253833895e-01,2.830789783622865e-01,3.142160377150764e-01,3.142843759688650e-01
0.292168116783851,-1.624155643498332e-01,2.818260698175404e-01,3.168861437827530e-01,3.134509617472532e-01
0.295309709437441,-1.682145515092414e-01,2.805543021999091e-01,3.195466863921679e-01,3.125912044814989e-01
0.298451302091030,-1.740254256984768e-01,2.792636192537956e-01,3.221963460931652e-01,3.117046396508500e-01
0.301592894744620,-1.798462963165708e-01,2.779539701864381e-01,3.248337890513914e-01,3.107908043289795e-01
0.304734487398210,-1.856752434621021e-01,2.766253098422824e-01,3.274576673302347e-01,3.098492374912898e-01
0.307876080051800,-1.915103180954298e-01,2.752775988771106e-01,3.300666191900370e-01,3.088794803291812e-01
0.311017672705389,-1.973495422264693e-01,2.739108039317880e-01,3.326592694049219e-01,3.078810765712779e-01
0.314159265358979,-2.031909091286477e-01,2.725248978054864e-01,3.352342295975300e-01,3.068535728115963e-01
0.317300858012569,-2.090323835797227e-01,2.711198596282449e-01,3.377900985920095e-01,3.057965188446455e-01
0.320442450666159,-2.148719021300796e-01,2.696956750327171e-01,3.403254627855212e-01,3.047094680074213e-01
0.323584043319749,-2.207073733991713e-01,2.682523363249549e-01,3.428388965385816e-01,3.035919775282703e-01
0.326725635973338,-2.265366784007212e-01,2.667898426540749e-01,3.453289625845090e-01,3.024436088825692e-01
0.329867228626928,-2.323576708973221e-01,2.653082001806477e-01,3.477942124582531e-01,3.012639281551763e-01
0.333008821280518,-2.381681777850372e-01,2.638074222436453e-01,3.502331869448630e-01,3.000525064095893e-01
0.336150413934108,-2.439659995086159e-01,2.622875295257840e-01,3.526444165478468e-01,2.988089200637378e-01
0.339292006587698,-2.497489105079141e-01,2.607485502170890e-01,3.550264219776623e-01,2.975327512723347e-01
0.342433599241287,-2.555146596960974e-01,2.591905201765090e-01,3.573777146605550e-01,2.962235883156941e-01
0.345575191894877,-2.612609709701939e-01,2.576134830914022e-01,3.596967972679607e-01,2.948810259949164e-01
0.348716784548467,-2.669855437545564e-01,2.560174906347130e-01,3.619821642666702e-01,2.935046660333315e-01
0.351858377202057,-2.726860535777580e-01,2.544026026196555e-01,3.642323024899299e-01,2.920941174840778e-01
0.354999969855647,-2.783601526834498e-01,2.527688871517146e-01,3.664456917296511e-01,2.906489971436906e-01
0.358141562509236,-2.840054706756835e-01,2.511164207777760e-01,3.686208053498773e-01,2.891689299715515e-01
0.361283155162826,-2.896196151991667e-01,2.494452886321886e-01,3.707561109216331e-01,2.876535495150521e-01
0.364424747816416,-2.952001726549342e-01,2.477555845795656e-01,3.728500708792838e-01,2.861024983403016e-01
0.367566340470006,-3.007447089518619e-01,2.460474113541181e-01,3.749011431984876e-01,2.845154284682062e-01
0.370707933123596,-3.062507702944403e-01,2.443208806953282e-01,3.769077820958249e-01,2.828920018157314e-01
0.373849525777185,-3.117158840072130e-01,2.425761134797463e-01,3.788684387501620e-01,2.812318906421437e-01
0.376991118430775,-3.171375593962377e-01,2.408132398487121e-01,3.807815620457797e-01,2.795347780000251e-01
0.380132711084365,-3.225132886479189e-01,2.390323993317855e-01,3.826455993372879e-01,2.778003581908287e-01
0.383274303737955,-3.278405477655225e-01,2.372337409656789e-01,3.844589972363142e-01,2.760283372247454e-01
0.386415896391545,-3.331167975436649e-01,2.354174234084722e-01,3.862202024199393e-01,2.742184332846217e-01
0.389557489045134,-3.383394845810254e-01,2.335836150488997e-01,3.879276624608233e-01,2.723703771936749e-01
0.392699081698724,-3.435060423315081e-01,2.317324941104889e-01,3.895798266789454e-01,2.704839128867231e-01
0.395840674352314,-3.486138921940503e-01,2.298642487503343e-01,3.911751470148542e-01,2.685587978846396e-01
0.398982267005904,-3.536604446412287e-01,2.279790771522838e-01,3.927120789243013e-01,2.665948037717311e-01
0.402123859659494,-3.586431003867840e-01,2.260771876143234e-01,3.941890822940977e-01,2.645917166757250e-01
0.405265452313083,-3.635592515921591e-01,2.241587986299311e-01,3.956046223790172e-01,2.625493377500235e-01
0.408407044966673,-3.684062831120839e-01,2.222241389631870e-01,3.969571707595308e-01,2.604674836578970e-01
0.411548637620263,-3.731815737792319e-01,2.202734477174104e-01,3.982452063201390e-01,2.583459870582442e-01
0.414690230273853,-3.778824977279011e-01,2.183069743971084e-01,3.994672162480298e-01,2.561846970925540e-01
0.417831822927443,-3.825064257566481e-01,2.163249789630137e-01,4.006216970517639e-01,2.539834798726788e-01
0.420973415581032,-3.870507267297687e-01,2.143277318799880e-01,4.017071555996669e-01,2.517422189690248e-01
0.424115008234622,-3.915127690174481e-01,2.123155141575774e-01,4.027221101775602e-01,2.494608158987387e-01
0.427256600888212,-3.958899219743795e-01,2.102886173829968e-01,4.036650915654437e-01,2.471391906134639e-01
0.430398193541802,-4.001795574565984e-01,2.082473437463329e-01,4.045346441327113e-01,2.447772819862311e-01
0.433539786195391,-4.043790513762273e-01,2.061920060577433e-01,4.053293269514385e-01,2.423750482970131e-01
0.436681378848981,-4.084857852937737e-01,2.041229277564500e-01,4.060477149272522e-01,2.399324677164893e-01
0.439822971502571,-4.124971480475906e-01,2.020404429113068e-01,4.066883999472690e-01,2.374495387875225e-01
0.442964564156161,-4.164105374200271e-01,1.999448962127457e-01,4.072499920445345e-01,2.349262809038608e-01
0.446106156809751,-4.202233618397786e-01,1.978366429558887e-01,4.077311205783805e-01,2.323627347855480e-01
0.449247749463340,-4.239330421198633e-01,1.957160490146333e-01,4.081304354300682e-01,2.297589629505166e-01
0.452389342116930,-4.275370132306108e-01,1.935834908065113e-01,4.084466082130576e-01,2.271150501818312e-01
0.455530934770520,-4.310327261069937e-01,1.914393552481335e-01,4.086783334972070e-01,2.244311039900262e-01
0.458672527424110,-4.344176494895617e-01,1.892840397010319e-01,4.088243300461633e-01,2.217072550699762e-01
0.461814120077700,-4.376892717982054e-01,1.871179519077199e-01,4.088833420671811e-01,2.189436577517243e-01
0.464955712731289,-4.408451030378824e-01,1.849415099177915e-01,4.088541404725514e-01,2.161404904446732e-01
0.468097305384879,-4.438826767354162e-01,1.827551420038982e-01,4.087355241518092e-01,2.132979560745502e-01
0.471238898038469,-4.467995519063912e-01,1.805592865674293e-01,4.085263212538291e-01,2.104162825125193e-01
0.474380490692059,-4.495933150511060e-01,1.783543920337511e-01,4.082253904778949e-01,2.074957229958306e-01
0.477522083345649,-4.522615821785154e-01,1.761409167368453e-01,4.078316223727858e-01,2.045365565393603e-01
0.480663675999238,-4.548020008569791e-01,1.739193287932131e-01,4.073439406428891e-01,2.015390883374047e-01
0.483805268652828,-4.572122522906175e-01,1.716901059649075e-01,4.067613034603050e-01,1.985036501550693e-01
0.486946861306418,-4.594900534199858e-01,1.694537355115711e-01,4.060827047818817e-01,1.954306007085870e-01
0.490088453960008,-4.616331590457173e-01,1.672107140313599e-01,4.053071756700697e-01,1.923203260338944e-01
0.493230046613598,-4.636393639737279e-01,1.649615472906522e-01,4.044337856164624e-01,1.891732398427806e-01
0.496371639267187,-4.655065051805000e-01,1.627067500424384e-01,4.034616438668371e-01,1.859897838659191e-01
0.499513231920777,-4.672324639969118e-01,1.604468458333113e-01,4.023899007464882e-01,1.827704281820825e-01
0.502654824574367,-4.688151683089895e-01,1.581823667989778e-01,4.012177489845978e-01,1.795156715328411e-01
0.505796417227957,-4.702525947739259e-01,1.559138534482244e-01,3.999444250363623e-01,1.762260416220229e-01
0.508938009881546,-4.715427710496137e-01,1.536418544352887e-01,3.985692104015529e-01,1.729020953992298e-01
0.512079602535136,-4.726837780358932e-01,1.513669263205872e-01,3.970914329381499e-01,1.695444193266802e-01
0.515221195188726,-4.736737521256428e-01,1.490896333197793e-01,3.955104681696719e-01,1.661536296286572e-01
0.518362787842316,-4.745108874637810e-01,1.468105470411384e-01,3.938257405847634e-01,1.627303725228275e-01
0.521504380495906,-4.751934382121776e-01,1.445302462112383e-01,3.920367249276007e-01,1.592753244327083e-01
0.524645973149495,-4.757197208184074e-01,1.422493163889546e-01,3.901429474776166e-01,1.557891921805389e-01
0.527787565803085,-4.760881162862276e-01,1.399683496678123e-01,3.881439873170335e-01,1.522727131598325e-01
0.530929158456675,-4.762970724455812e-01,1.376879443667084e-01,3.860394775846559e-01,1.487266554868649e-01
0.534070751110265,-4.763451062198795e-01,1.354087047090725e-01,3.838291067143435e-01,1.451518181303779e-01
0.537212343763855,-4.762308058882482e-01,1.331312404905210e-01,3.815126196565632e-01,1.415490310187556e-01
0.540353936417444,-4.759528333403699e-01,1.308561667350970e-01,3.790898190813892e-01,1.379191551239556e-01
0.543495529071034,-4.755099263214834e-01,1.285841033401884e-01,3.765605665612935e-01,1.342630825214661e-01
0.546637121724624,-4.749009006650607e-01,1.263156747102405e-01,3.739247837320468e-01,1.305817364255705e-01
0.549778714378214,-4.741246525106123e-01,1.240515093793928e-01,3.711824534300290e-01,1.268760711992097e-01
0.552920307031804,-4.731801605040186e-01,1.217922396231872e-01,3.683336208042210e-01,1.231470723377336e-01
0.556061899685393,-4.720664879777493e-01,1.195385010595135e-01,3.653783944011416e-01,1.193957564258521e-01
0.559203492338983,-4.707827851082494e-01,1.172909322389691e-01,3.623169472209583e-01,1.156231710670865e-01
0.562345084992573,-4.693282910477590e-01,1.150501742248367e-01,3.591495177430032e-01,1.118303947850604e-01
0.565486677646163,-4.677023360277558e-01,1.128168701628921e-01,3.558764109188956e-01,1.080185368959518e-01
0.568628270299752,-4.659043434311840e-01,1.105916648412784e-01,3.524979991314691e-01,1.041887373514653e-01
0.571769862953342,-4.639338318305822e-01,1.083752042406997e-01,3.490147231176878e-01,1.003421665516846e-01
0.574911455606932,-4.617904169891866e-01,1.061681350752010e-01,3.454270928537251e-01,9.648002512718210e-02
0.578053048260522,-4.594738138220472e-01,1.039711043238279e-01,3.417356884003776e-01,9.260354368978832e-02
0.581194640914112,-4.569838383141578e-01,1.017847587534715e-01,3.379411607069773e-01,8.871398255143166e-02
0.584336233567701,-4.543204093925765e-01,9.960974443322229e-02,3.340442323719626e-01,8.481263141048234e-02
