theta,real(S11),imag(S11),real(S22),imag(S22)
0.000000000000000,-1.039479036004339e+00,3.415149763843674e+00,-1.039479036444588e+00,3.415149764279109e+00
0.003141592653590,-1.038750278697134e+00,3.413763084968678e+00,-1.038696757065157e+00,3.413868693915236e+00
0.006283185307180,-1.036565507878727e+00,3.409605045796265e+00,-1.036351520135093e+00,3.410027089106843e+00
0.009424777960769,-1.032929224114923e+00,3.402681636113245e+00,-1.032448126515798e+00,3.403629767236030e+00
0.012566370614359,-1.027848919247119e+00,3.393002830376935e+00,-1.026994568435088e+00,3.394684752402277e+00
0.015707963267949,-1.021335062745346e+00,3.380582574933315e+00,-1.020002015678876e+00,3.383203268109635e+00
0.018849555921539,-1.013401082613308e+00,3.365438770120712e+00,-1.011484796266270e+00,3.369199727014951e+00
0.021991148575129,-1.004063340856731e+00,3.347593247258198e+00,-1.001460371615385e+00,3.352691717724234e+00
0.025132741228718,-9.933411035293279e-01,3.327071740516788e+00,-9.899493062090420e-01,3.333699988619637e+00
0.028274333882308,-9.812565053740394e-01,3.303903853671440e+00,-9.769752317716590e-01,3.312248428695935e+00
0.031415926535898,-9.678345090816893e-01,3.278123021733355e+00,-9.625648059721438e-01,3.288364045383282e+00
0.034557519189488,-9.531028591919825e-01,3.249766467460266e+00,-9.467476656691195e-01,3.262076939327644e+00
0.037699111843078,-9.370920306669860e-01,3.218875152745066e+00,-9.295563747190632e-01,3.233420276099260e+00
0.040840704496667,-9.198351721707301e-01,3.185493724882286e+00,-9.110263663702670e-01,3.202430254795021e+00
0.043982297150257,-9.013680440938093e-01,3.149670457713879e+00,-8.911958802697912e-01,3.169146073498729e+00
0.047123889803847,-8.817289513669647e-01,3.111457187657628e+00,-8.701058941146167e-01,3.133609891561229e+00
0.050265482457437,-8.609586711123430e-01,3.070909244621860e+00,-8.478000499819600e-01,3.095866788659024e+00
0.053407075111026,-8.391003751875881e-01,3.028085377813786e+00,-8.243245753792018e-01,3.055964720589389e+00
0.056548667764616,-8.161995476835248e-01,2.983047676450346e+00,-7.997281990585827e-01,3.013954471757702e+00
0.059690260418206,-7.923038974431847e-01,2.935861485384548e+00,-7.740620616479943e-01,2.969889604312608e+00
0.062831853071796,-7.674632656761989e-01,2.886595315662023e+00,-7.473796211545988e-01,2.923826403882155e+00
0.065973445725386,-7.417295287507824e-01,2.835320750028567e+00,-7.197365534055774e-01,2.875823821865810e+00
0.069115038378975,-7.151564962525022e-01,2.782112343411797e+00,-6.911906474964860e-01,2.825943414235227e+00
0.072256631032565,-6.877998044081911e-01,2.727047518406982e+00,-6.618016963264293e-01,2.774249276799173e+00
0.075398223686155,-6.597168049812370e-01,2.670206455800747e+00,-6.316313823064723e-01,2.720807976887074e+00
0.078539816339745,-6.309664497544140e-01,2.611671980173794e+00,-6.007431583373692e-01,2.665688481408564e+00
0.081681408993335,-6.016091707256597e-01,2.551529440629627e+00,-5.692021241615105e-01,2.608962081247562e+00
0.084823001646924,-5.717067561524830e-01,2.489866586703500e+00,-5.370748982041057e-01,2.550702311951997e+00
0.087964594300514,-5.413222225915880e-01,2.426773439514288e+00,-5.044294850294010e-01,2.490984870683968e+00
0.091106186954104,-5.105196830906205e-01,2.362342158228742e+00,-4.713351385480215e-01,2.429887529397237e+00
0.094247779607694,-4.793642117014159e-01,2.296666901918403e+00,-4.378622211241895e-01,2.367490044214789e+00
0.097389372261284,-4.479217044954607e-01,2.229843686897867e+00,-4.040820587430931e-01,2.303874060983103e+00
0.100530964914873,-4.162587372744971e-01,2.161970239642747e+00,-3.700667924112683e-01,2.239123016984338e+00
0.103672557568463,-3.844424201827039e-01,2.093145845398095e+00,-3.358892259769381e-01,2.173322038795630e+00
0.106814150222053,-3.525402494391093e-01,2.023471192597312e+00,-3.016226705700265e-01,2.106557836289030e+00
0.109955742875643,-3.206199564229495e-01,1.953048213224944e+00,-2.673407858764800e-01,2.038918592774569e+00
0.113097335529233,-2.887493543581068e-01,1.881979919268145e+00,-2.331174184758583e-01,1.970493851295649e+00
0.116238928182822,-2.569961828568587e-01,1.810370235415090e+00,-1.990264374863219e-01,1.901374397095259e+00
0.119380520836412,-2.254279505973923e-01,1.738323828171760e+00,-1.651415677766367e-01,1.831652136280260e+00
0.122522113490002,-1.941117764238043e-01,1.665945931582375e+00,-1.315362210204558e-01,1.761419970720873e+00
0.125663706143592,-1.631142291719392e-01,1.593342169753361e+00,-9.828332488433024e-02,1.690771669233305e+00
0.128805298797182,-1.325011665387538e-01,1.520618376395068e+00,-6.545515065696637e-02,1.619801735104067e+00
0.131946891450771,-1.023375733276902e-01,1.447880411611137e+00,-3.312313964393692e-02,1.548605270026970e+00
0.135088484104361,-7.268739941673759e-02,1.375233976180399e+00,-1.357728668304782e-03,1.477277834535712e+00
0.138230076757951,-4.361339781031259e-02,1.302784423592263e+00,2.977182496568764e-02,1.405915305028326e+00
0.141371669411541,-1.517696315014566e-02,1.230636570112329e+00,6.019761867221602e-02,1.334613727493198e+00
0.144513262065130,1.256202892583312e-02,1.158894503171622e+00,8.985327955673349e-02,1.263469168061118e+00
0.147654854718720,3.954538117420889e-02,1.087661388388687e+00,1.186741387558479e-01,1.192577560522150e+00
0.150796447372310,6.571673247120982e-02,1.017039275550328e+00,1.465974047222346e-01,1.122034550961593e+00
0.153938040025900,9.102171344443130e-02,9.471289038936754e-01,1.735623350168170e-01,1.051935339685764e+00
0.157079632679490,1.154080995719137e-01,8.780295070478980e-01,1.995104061556728e-01,9.823745206238833e-01
0.160221225333079,1.388259612983041e-01,8.098386180106976e-01,2.243854810446006e-01,9.134459184098616e-01
0.163362817986669,1.612278107076967e-01,7.426518745505015e-01,2.481339735204165e-01,8.452424233647021e-01
0.166504410640259,1.825687442838053e-01,6.765628254411263e-01,2.707050095052629e-01,7.778558246179956e-01
0.169646003293849,2.028065812800323e-01,6.116627379507938e-01,2.920505842680552e-01,7.113766416246161e-01
0.172787595947439,2.219019972152249e-01,5.480404070226780e-01,3.121257152762322e-01,6.458939543513008e-01
0.175929188601028,2.398186520053829e-01,4.857819665980352e-01,3.308885901110697e-01,5.814952324256817e-01
0.179070781254618,2.565233122375154e-01,4.249707035470746e-01,3.483007089112662e-01,5.182661635592417e-01
0.182212373908208,2.719859670892888e-01,3.656868746852024e-01,3.643270208023118e-01,4.562904815737455e-01
0.185353966561798,2.861799373971786e-01,3.080075273646756e-01,3.789360537634878e-01,3.956497943795746e-01
0.188495559215388,2.990819773766896e-01,2.520063241425234e-01,3.921000373803457e-01,3.364234122725143e-01
0.191637151868977,3.106723685008916e-01,1.977533720358141e-01,4.037950179282973e-01,2.786881769339961e-01
0.194778744522567,3.209350050482372e-01,1.453150568838481e-01,4.140009652326758e-01,2.225182915374141e-01
0.197920337176157,3.298574708372798e-01,9.475388334485342e-02,4.227018707522951e-01,1.679851523812017e-01
0.201061929829747,3.374311066749997e-01,4.612832106020275e-02,4.298858363376089e-01,1.151571824857784e-01
0.204203522483337,3.436510680564532e-01,-5.073424754731152e-04,4.355451531206002e-01,6.409966760882338e-02
0.207345115136926,3.485163726671883e-01,-4.510314179769432e-02,4.396763700023156e-01,1.487459514840518e-02
0.210486707790516,3.520299372557983e-01,-8.761356556662486e-02,4.422803512150768e-01,-3.245950358070233e-02
0.213628300444106,3.541986034625622e-01,-1.279976803314449e-01,4.433623224502138e-01,-7.784770719866978e-02
0.216769893097696,3.550331522112496e-01,-1.662192454254707e-01,4.429319050587555e-01,-1.212388537275950e-01
0.219911485751285,3.545483062949890e-01,-2.022468184580099e-01,4.410031378519531e-01,-1.625856851496710e-01
0.223053078404875,3.527627208135918e-01,-2.360538508755344e-01,4.375944860508586e-01,-2.018449865213199e-01
0.226194671058465,3.496989611489866e-01,-2.676187730739314e-01,4.327288369595780e-01,-2.389777190988100e-01
0.229336263712055,3.453834681974682e-01,-2.969250685551639e-01,4.264334819653282e-01,-2.739491469230956e-01
0.232477856365645,3.398465106122879e-01,-3.239613366354200e-01,4.187400845000344e-01,-3.067289563052474e-01
0.235619449019234,3.331221238477166e-01,-3.487213432285330e-01,4.096846336330364e-01,-3.372913676497225e-01
0.238761041672824,3.252480358361410e-01,-3.712040592471663e-01,3.993073830025565e-01,-3.656152390498277e-01
0.241902634326414,3.162655791728693e-01,-3.914136861863861e-01,3.876527748348381e-01,-3.916841610897904e-01
0.245044226980004,3.062195897291854e-01,-4.093596684782212e-01,3.747693488444295e-01,-4.154865422890383e-01
0.248185819633594,2.951582916626641e-01,-4.250566922334389e-01,3.607096358568232e-01,-4.370156846288762e-01
0.251327412287183,2.831331688447913e-01,-4.385246700163490e-01,3.455300360456148e-01,-4.562698486077357e-01
0.254469004940773,2.701988227794189e-01,-4.497887113315494e-01,3.292906817304047e-01,-4.732523072805655e-01
0.257610597594363,2.564128171413355e-01,-4.588790785369575e-01,3.120552847387110e-01,-4.879713887494401e-01
0.260752190247953,2.418355091223015e-01,-4.658311279359694e-01,2.938909683953554e-01,-5.004405065869855e-01
0.263893782901543,2.265298678317992e-01,-4.706852358428005e-01,2.748680842655012e-01,-5.106781776916102e-01
0.267035375555132,2.105612800615959e-01,-4.734867094590600e-01,2.550600138431695e-01,-5.187080270938951e-01
0.270176968208722,1.939973437866153e-01,-4.742856824462911e-01,2.345429554450450e-01,-5.245587792568970e-01
0.273318560862312,1.769076498394594e-01,-4.731369951285207e-01,2.133956966398246e-01,-5.282642354396961e-01
0.276460153515902,1.593635522617570e-01,-4.701000593108078e-01,1.916993726156956e-01,-5.298632367233908e-01
0.279601746169492,1.414379279023277e-01,-4.652387077540239e-01,1.695372109628709e-01,-5.293996123317140e-01
0.282743338823081,1.232049258994342e-01,-4.586210284028510e-01,1.469942634239585e-01,-5.269221129149562e-01
0.285884931476671,1.047397077518398e-01,-4.503191835227436e-01,1.241571252419337e-01,-5.224843285055306e-01
0.289026524130261,8.611817875082729e-02,-4.404092139624934e-01,1.011136428136203e-01,-5.161445908966608e-01
0.292168116783851,6.741671161216313e-02,-4.289708288217455e-01,7.795261043512258e-02,-5.079658602421188e-01
0.295309709437441,4.871186321294677e-02,-4.160871808671050e-01,5.476345700441865e-02,-4.980155957246951e-01
0.298451302091030,3.008008540297192e-02,-4.018446281062171e-01,3.163592362491235e-02,-4.863656101941464e-01
0.301592894744620,1.159743092325731e-02,-3.863324819961702e-01,8.659733131752353e-03,-4.730919087316986e-01
0.304734487398210,-6.660744474955674e-03,-3.696427428302348e-01,-1.407574736063992e-02,-4.582745111574802e-01
0.307876080051800,-2.462008255906138e-02,-3.518698229155292e-01,-3.648184971591541e-02,-4.419972585598471e-01
0.311017672705389,-4.220752458515277e-02,-3.331102582227990e-01,-5.847095259109482e-02,-4.243476039907857e-01
0.314159265358979,-5.935161345097804e-02,-3.134624092583044e-01,-7.995683249220811e-02,-4.054163875397492e-01
0.317300858012569,-7.598279472603252e-02,-2.930261519760484e-01,-1.008550166853270e-01,-3.852975960688179e-01
0.320442450666159,-9.203371520988167e-02,-2.719025596163699e-01,-1.210831365141213e-01,-3.640881079652105e-01
0.323584043319749,-1.074395176319124e-01,-2.501935764233094e-01,-1.405612796156865e-01,-3.418874233421724e-01
0.326725635973338,-1.221381300730910e-01,-2.280016842582888e-01,-1.592123394715823e-01,-3.187973801962882e-01
0.329867228626928,-1.360705486637524e-01,-2.054295631908060e-01,-1.769623606817089e-01,-2.949218571078559e-01
0.333008821280518,-1.491811120913175e-01,-1.825797472076261e-01,-1.937408783053092e-01,-2.703664631507063e-01
0.336150413934108,-1.614177664385552e-01,-1.595542762401187e-01,-2.094812495765442e-01,-2.452382157586611e-01
0.339292006587698,-1.727323188671261e-01,-1.364543457642210e-01,-2.241209762724405e-01,-2.196452073770176e-01
0.342433599241287,-1.830806786629074e-01,-1.133799552788894e-01,-2.376020159889504e-01,-1.936962618089918e-01
0.345575191894877,-1.924230841696257e-01,-9.042955701603173e-02,-2.498710805671508e-01,-1.675005812481337e-01
0.348716784548467,-2.007243141557631e-01,-6.769970627764305e-02,-2.608799199065970e-01,-1.411673850682280e-01
0.351858377202057,-2.079538821870194e-01,-4.528471483358534e-02,-2.705855894071258e-01,-1.148055415214697e-01
0.354999969855647,-2.140862126130504e-01,-2.327630884574695e-02,-2.789506992944570e-01,-8.852319357328152e-02
0.358141562509236,-2.191007968230063e-01,-1.763292810778608e-03,-2.859436441091840e-01,-6.242738017755042e-02
0.361283155162826,-2.229823284797958e-01,1.916877896619701e-02,-2.915388106736237e-01,-3.662365436874432e-02
0.364424747816416,-2.257208165081000e-01,3.943792184103345e-02,-2.957167628968108e-01,-1.121569961674048e-02
0.367566340470006,-2.273116746861019e-01,5.896602971084639e-02,-2.984644018350674e-01,1.369505404424784e-02
0.370707933123596,-2.277557867756742e-01,7.767917177381972e-02,-2.997750994942382e-01,3.800981254010015e-02
0.373849525777185,-2.270595462203693e-01,9.550787564606392e-02,-2.996488049400844e-01,6.163279730598720e-02
0.376991118430775,-2.252348695448717e-01,1.123873953299262e-01,-2.980921213756190e-01,8.447162018118975e-02
0.380132711084365,-2.222991827034230e-01,1.282579625534590e-01,-2.951183529483428e-01,1.064376519260902e-01
0.383274303737955,-2.182753797478987e-01,1.430650200347076e-01,-2.907475201664666e-01,1.274463826004172e-01
0.386415896391545,-2.131917533183180e-01,1.567594352672385e-01,-2.850063429310865e-01,1.474177720116790e-01
0.389557489045134,-2.070818965992671e-01,1.692976934750912e-01,-2.779281903308111e-01,1.662765884205316e-01
0.392699081698724,-1.999845765344543e-01,1.806420684462682e-01,-2.695529964961829e-01,1.839527336762510e-01
0.395840674352314,-1.919435782478714e-01,1.907607700239317e-01,-2.599271419730458e-01,2.003815529508690e-01
0.398982267005904,-1.830075207831207e-01,1.996280671137415e-01,-2.491033002463200e-01,2.155041272455718e-01
0.402123859659494,-1.732296444416621e-01,2.072243851541797e-01,-2.371402492278732e-01,2.292675468580439e-01
0.405265452313083,-1.626675701751421e-01,2.135363770941609e-01,-2.241026477136130e-01,2.416251640251306e-01
0.408407044966673,-1.513830316658277e-01,2.185569670284774e-01,-2.100607770149226e-01,2.525368229916751e-01
0.411548637620263,-1.394415809112652e-01,2.222853657565922e-01,-1.950902481770214e-01,2.619690658043933e-01
0.414690230273853,-1.269122683137774e-01,2.247270576534592e-01,-1.792716754110181e-01,2.698953121890661e-01
0.417831822927443,-1.138672984609931e-01,2.258937583722376e-01,-1.626903165860479e-01,2.762960119407925e-01
0.420973415581032,-1.003816629690735e-01,2.258033430373801e-01,-1.454356818518180e-01,2.811587683405203e-01
0.424115008234622,-8.653275194451326e-02,2.244797447321773e-01,-1.276011116889492e-01,2.844784312067247e-01
0.427256600888212,-7.239994580178166e-02,2.219528232368052e-01,-1.092833259130920e-01,2.862571582990679e-01
0.430398193541802,-5.806418935143784e-02,2.182582041305959e-01,-9.058194538763129e-02,2.865044439110189e-01
0.433539786195391,-4.360755024514398e-02,2.134370885348940e-01,-7.159898842721768e-02,2.852371136206783e-01
0.436681378848981,-2.911276402882738e-02,2.075360339396726e-01,-5.243834409879800e-02,2.824792843132222e-01
0.439822971502571,-1.466276821145817e-02,2.006067067271712e-01,-3.320522484641324e-02,2.782622887441730e-01
0.442964564156161,-3.402279032572904e-04,1.927056071782944e-01,-1.400560107931428e-02,2.726245640796877e-01
0.446106156809751,1.377294428821742e-02,1.838937679212810e-01,5.054379432308499e-03,2.656115040277929e-01
0.449247749463340,2.759607129392820e-02,1.742364269562798e-01,2.386898431492479e-02,2.572752743623305e-01
0.452389342116930,4.105019463385527e-02,1.638026765627257e-01,4.233349828093549e-02,2.476745918386567e-01
0.455530934770520,5.405855447365025e-02,1.526650895677241e-01,6.034483035924176e-02,2.368744667060240e-01
0.458672527424110,6.654706360519812e-02,1.408993246217386e-01,7.780212312393665e-02,2.249459092351486e-01
0.461814120077700,7.844477221371161e-02,1.285837122915960e-01,9.460736024273510e-02,2.119656008997368e-01
0.464955712731289,8.968432025888619e-02,1.157988239388167e-01,1.106659685512048e-01,1.980155310765345e-01
0.468097305384879,1.002023742836181e-01,1.026270255023050e-01,1.258874107645693e-01,1.831826003585797e-01
0.471238898038469,1.099400454719717e-01,8.915201844720548e-02,1.401857648676749e-01,1.675581918094084e-01
0.474380490692059,1.188432858092838e-01,7.545837027494190e-02,1.534802861771084e-01,1.512377117206286e-01
0.477522083345649,1.268632592524868e-01,6.163103711175334e-02,1.656959480492244e-01,1.343201016698420e-01
0.480663675999238,1.339566848982788e-01,4.775488100332465e-02,1.767639572149913e-01,1.169073239090457e-01
0.483805268652828,1.400861492414161e-01,3.391418463988664e-02,1.866222397587731e-01,9.910382234331037e-02
0.486946861306418,1.452203847451897e-01,2.019216631849755e-02,1.952158938241596e-01,8.101596158433144e-02
0.490088453960008,1.493345121013132e-01,6.670498015743480e-03,2.024976052268803e-01,6.275144678126825e-02
0.493230046613598,1.524102437367700e-01,-6.571170506101801e-03,2.084280222832443e-01,4.441872714045623e-02
0.496371639267187,1.544360463303939e-01,-1.945567860448068e-02,2.129760863230345e-01,2.612638624405674e-02
0.499513231920777,1.554072603314215e-01,-3.190880970527524e-02,2.161193145484869e-01,7.982522463668653e-03
0.502654824574367,1.553261747252553e-01,-4.385973133289363e-02,2.178440321259790e-01,-9.905877063611013e-03
0.505796417227957,1.542020555671204e-01,-5.524141728633834e-02,2.181455506540421e-01,-2.743356527424230e-02
0.508938009881546,1.520511271009130e-01,-6.599104907318004e-02,2.170282904397028e-01,-4.449766307322407e-02
0.512079602535136,1.488965045968309e-01,-7.605039378204079e-02,2.145058443341663e-01,-6.099828240943686e-02
0.515221195188726,1.447680783755598e-01,-8.536615566436828e-02,2.106009812273077e-01,-7.683914056130135e-02
0.518362787842316,1.397023488368580e-01,-9.389029880825690e-02,2.053455876768563e-01,-9.192816159213670e-02
0.521504380495906,1.337422126741331e-01,-1.015803384206591e-01,1.987805465508382e-01,-1.061780608892755e-01
0.524645973149495,1.269367008315252e-01,-1.083995983895493e-01,1.909555519886465e-01,-1.195069086828074e-01
0.527787565803085,1.193406691434805e-01,-1.143174329738851e-01,1.819288604346932e-01,-1.318386684498198e-01
0.530929158456675,1.110144429858920e-01,-1.193094106661619e-01,1.717669779662348e-01,-1.431037061497137e-01
0.534070751110265,1.020234176595863e-01,-1.233574584891357e-01,1.605442846206799e-01,-1.532392663064388e-01
0.537212343763855,9.243761661795731e-02,-1.264499652240442e-01,1.483425969241610e-01,-1.621899110553983e-01
0.540353936417444,8.233121003759722e-02,-1.285818423211978e-01,1.352506703288738e-01,-1.699079184067958e-01
0.543495529071034,7.178199661029290e-02,-1.297545415138819e-01,1.213636437777781e-01,-1.763536361439102e-01
0.546637121724624,6.087085180318370e-02,-1.299760284415672e-01,1.067824291276709e-01,-1.814957879743228e-01
0.549778714378214,4.968114618760334e-02,-1.292607118868011e-01,9.161304867117070e-02,-1.853117287843865e-01
0.552920307031804,3.829813777240242e-02,-1.276293285399573e-01,7.596592450021521e-02,-1.877876461119296e-01
0.556061899685393,2.680834259080505e-02,-1.251087835252286e-01,5.995512394383930e-02,-1.889187052486318e-01
0.559203492338983,1.529888807730446e-02,-1.217319472476396e-01,4.369756578631159e-02,-1.887091357107879e-01
0.562345084992573,3.856854029405929e-03,-1.175374094520782e-01,2.731219242366343e-02,-1.871722571740055e-01
0.565486677646163,-7.431393825501682e-03,-1.125691917189088e-01,1.091911354208065e-02,-1.843304433522369e-01
0.568628270299752,-1.848087244830517e-02,-1.068764199540019e-01,-5.361272704008247e-03,-1.802150227124864e-01
0.571769862953342,-2.920864693106887e-02,-1.005129587613091e-01,-2.140917467794967e-02,-1.748661153514036e-01
0.574911455606932,-3.953448729592181e-02,-9.353700991056847e-02,-3.710631175710116e-02,-1.683324058161958e-01
0.578053048260522,-4.938151111715171e-02,-8.601067742855908e-02,-5.233682141276149e-02,-1.606708521270777e-01
