theta,real(S11),imag(S11),real(S22),imag(S22)
0.000000000000000,-2.484205023463069e+00,9.445612402813712e+00,-2.484205115700397e+00,9.445612662503853e+00
0.003141592653590,-2.483835212322181e+00,9.440285206154380e+00,-2.483863650207744e+00,9.440299688622328e+00
0.006283185307180,-2.482724772118125e+00,9.424314002678619e+00,-2.482838171171752e+00,9.424371262036804e+00
0.009424777960769,-2.480870688734401e+00,9.397729927050801e+00,-2.481125437293771e+00,9.397858842279737e+00
0.012566370614359,-2.478267959375409e+00,9.360584787637340e+00,-2.478720067633755e+00,9.360814776494095e+00
0.015707963267949,-2.474909623568463e+00,9.312950942634435e+00,-2.475614573350736e+00,9.313312171569809e+00
0.018849555921539,-2.470786806375645e+00,9.254921127123255e+00,-2.471799401948087e+00,9.255444715639390e+00
0.021991148575129,-2.465888773625646e+00,9.186608231529950e+00,-2.467262993833212e+00,9.187326449438201e+00
0.025132741228718,-2.460202998922536e+00,9.108145032098202e+00,-2.461991850947959e+00,9.109091488172851e+00
0.028274333882308,-2.453715242136598e+00,9.019683874112960e+00,-2.455970617174126e+00,9.020893694680021e+00
0.031415926535898,-2.446409639032225e+00,8.921396308748578e+00,-2.449182170168032e+00,8.922906304799691e+00
0.034557519189488,-2.438268801637984e+00,8.813472684532769e+00,-2.441607724228063e+00,8.815321506012447e+00
0.037699111843078,-2.429273928917075e+00,8.696121694549721e+00,-2.433226943751992e+00,8.698349970529094e+00
0.040840704496667,-2.419404927250569e+00,8.569569880618564e+00,-2.424018066794755e+00,8.572220344140559e+00
0.043982297150257,-2.408640540202116e+00,8.434061095803250e+00,-2.413958038193396e+00,8.437178692262098e+00
0.047123889803847,-2.396958486992131e+00,8.289855926723442e+00,-2.403022651684911e+00,8.293487904725060e+00
0.050265482457437,-2.384335609069747e+00,8.137231077237765e+00,-2.391186700402612e+00,8.141427060977291e+00
0.053407075111026,-2.370748024135376e+00,7.976478715179167e+00,-2.378424135100874e+00,7.981290757466084e+00
0.056548667764616,-2.356171286932502e+00,7.807905783916095e+00,-2.364708229423423e+00,7.813388399076950e+00
0.059690260418206,-2.340580556097578e+00,7.631833280608591e+00,-2.350011751500183e+00,7.638043456600405e+00
0.062831853071796,-2.323950766327938e+00,7.448595503109504e+00,-2.334307141128236e+00,7.455592692284388e+00
0.065973445725386,-2.306256805104665e+00,7.258539267548319e+00,-2.317566691768947e+00,7.266385355620042e+00
0.069115038378975,-2.287473693184624e+00,7.062023098702321e+00,-2.299762736570094e+00,7.070782351578786e+00
0.072256631032565,-2.267576768059166e+00,6.859416395334662e+00,-2.280867837604398e+00,6.869155383595564e+00
0.075398223686155,-2.246541869561233e+00,6.651098572733686e+00,-2.260854977499725e+00,6.661886073649616e+00
0.078539816339745,-2.224345526792493e+00,6.437458184747658e+00,-2.239697752625144e+00,6.449365061854996e+00
0.081681408993335,-2.200965145533600e+00,6.218892027653371e+00,-2.217370566988156e+00,6.231991088018087e+00
0.084823001646924,-2.176379195297069e+00,5.995804228239174e+00,-2.193848825993815e+00,6.010170057661275e+00
0.087964594300514,-2.150567395181501e+00,5.768605318518026e+00,-2.169109129215189e+00,5.784314095046580e+00
0.091106186954104,-2.123510897688476e+00,5.537711299507706e+00,-2.143129461326329e+00,5.554840585753473e+00
0.094247779607694,-2.095192469670271e+00,5.303542696540829e+00,-2.115889380354979e+00,5.322171211388975e+00
0.097389372261284,-2.065596669586239e+00,5.066523608575570e+00,-2.087370202421280e+00,5.086730979014193e+00
0.100530964914873,-2.034710020258745e+00,4.827080753980839e+00,-2.057555182140811e+00,4.848947247871646e+00
0.103672557568463,-2.002521176336750e+00,4.585642515273369e+00,-2.026429687886856e+00,4.609248755998169e+00
0.106814150222053,-1.969021085694499e+00,4.342637985267282e+00,-1.993981371125248e+00,4.368064649287614e+00
0.109955742875643,-1.934203144016547e+00,4.098496017085083e+00,-1.960200329058160e+00,4.125823515551715e+00
0.113097335529233,-1.898063341845928e+00,3.853644280452025e+00,-1.925079259837999e+00,3.882952426095777e+00
0.116238928182822,-1.860600403402240e+00,3.608508326666460e+00,-1.888613609641693e+00,3.639875987291516e+00
0.119380520836412,-1.821815916508043e+00,3.363510664600874e+00,-1.850801710926556e+00,3.397015404585669e+00
0.122522113490002,-1.781714452996810e+00,3.119069850043088e+00,-1.811644911223004e+00,3.154787561332142e+00
0.125663706143592,-1.740303679013547e+00,2.875599590638209e+00,-1.771147691856522e+00,2.913604114779943e+00
0.128805298797182,-1.697594454658298e+00,2.633507868632518e+00,-1.729317776029732e+00,2.673870611483326e+00
0.131946891450771,-1.653600922465476e+00,2.393196083560098e+00,-1.686166225737430e+00,2.435985624333038e+00
0.135088484104361,-1.608340584255566e+00,2.155058216941760e+00,-1.641707527030513e+00,2.200339913329126e+00
0.138230076757951,-1.561834365942155e+00,1.919480020992936e+00,-1.595959663190492e+00,1.967315612135366e+00
0.141371669411541,-1.514106669924314e+00,1.686838233256315e+00,-1.548944175422894e+00,1.737285442366717e+00
0.144513262065130,-1.465185414744408e+00,1.457499818991811e+00,-1.500686210727431e+00,1.510611957470094e+00
0.147654854718720,-1.415102061740872e+00,1.231821243065521e+00,-1.451214556651852e+00,1.287646817959766e+00
0.150796447372310,-1.363891628477429e+00,1.010147772985482e+00,-1.400561662688065e+00,1.068730099666687e+00
0.153938040025900,-1.311592688782842e+00,7.928128146358036e-01,-1.348763648121380e+00,8.541896365565270e-01
0.157079632679490,-1.258247359287432e+00,5.801372821567177e-01,-1.295860296195771e+00,6.443403995588571e-01
0.160221225333079,-1.203901272396859e+00,3.724290033145347e-01,-1.241895034512139e+00,4.394839127381064e-01
0.163362817986669,-1.148603535696482e+00,1.699821615968256e-01,-1.186914901629382e+00,2.399077080199512e-01
0.166504410640259,-1.092406677833793e+00,-2.692322384273091e-02,-1.130970499892312e+00,4.588481956773411e-02
0.169646003293849,-1.035366580978943e+00,-2.180217793789073e-01,-1.074115934563115e+00,-1.423266812181182e-01
0.172787595947439,-9.775424000171284e-01,-4.030632183525326e-01,-1.016408739387043e+00,-3.244841092272044e-01
0.175929188601028,-9.189964686778332e-01,-5.818127419723306e-01,-9.579097887745738e-01,-5.003605469676439e-01
0.179070781254618,-8.597941928579749e-01,-7.540513990195117e-01,-8.986831968347427e-01,-6.697451830957203e-01
0.182212373908208,-8.000039314455624e-01,-9.195764038131933e-01,-8.387962035444392e-01,-8.324436076733258e-01
0.185353966561798,-7.396968649998272e-01,-1.078201412013658e+00,-7.783190483883862e-01,-9.882780638058201e-01
0.188495559215388,-6.789468526908741e-01,-1.229756753960192e+00,-7.173248318523454e-01,-1.137087655439419e+00
0.191637151868977,-6.178302779479569e-01,-1.374089625359178e+00,-6.558893651989270e-01,-1.278728511222571e+00
0.194778744522567,-5.564258833089891e-01,-1.511064235257475e+00,-5.940910089997690e-01,-1.413073904461169e+00
0.197920337176157,-4.948145950063660e-01,-1.640561911352383e+00,-5.320105009413132e-01,-1.540014329319423e+00
0.201061929829747,-4.330793378631513e-01,-1.762481162807879e+00,-4.697307734614549e-01,-1.659457533541812e+00
0.204203522483337,-3.713048411119614e-01,-1.876737700859067e+00,-4.073367618137665e-01,-1.771328508088613e+00
0.207345115136926,-3.095774357829293e-01,-1.983264417601595e+00,-3.449152031913089e-01,-1.875569434196767e+00
0.210486707790516,-2.479848443403561e-01,-2.082011323471526e+00,-2.825544275765801e-01,-1.972139588490327e+00
0.213628300444106,-1.866159632764783e-01,-2.172945444029969e+00,-2.203441410143935e-01,-2.061015206877093e+00
0.216769893097696,-1.255606393983820e-01,-2.256050676770632e+00,-1.583752020335480e-01,-2.142189308074713e+00
0.219911485751285,-6.490944056744415e-02,-2.331327608770658e+00,-9.673939196804918e-02,-2.215671477714173e+00
0.223053078404875,-4.753421671994410e-03,-2.398793296102697e+00,-3.552917995158139e-02,-2.281487614068018e+00
0.226194671058465,5.481611336834931e-02,-2.458481006020514e+00,2.516251662165637e-02,-2.339679636546355e+00
0.229336263712055,1.137078527534252e-01,-2.510439923020892e+00,8.524257536010650e-02,-2.390305158194896e+00
0.232477856365645,1.718307202833121e-01,-2.554734819970085e+00,1.446179150387998e-01,-2.433437123515182e+00
0.235619449019234,2.290941203359814e-01,-2.591445695565351e+00,2.031957438309376e-01,-2.469163413008940e+00
0.238761041672824,2.854081835027737e-01,-2.620667379478076e+00,2.608838087662541e-01,-2.497586415923831e+00
0.241902634326414,3.406840120413712e-01,-2.642509106598117e+00,3.175906455721282e-01,-2.518822572749578e+00
0.245044226980004,3.948339243061398e-01,-2.657094061864983e+00,3.732258280517375e-01,-2.533001889077548e+00
0.248185819633594,4.477716973208486e-01,-2.664558897234508e+00,4.277002161567843e-01,-2.540267422497513e+00
0.251327412287183,4.994128066654120e-01,-2.665053222385403e+00,4.809262019170267e-01,-2.540774744258182e+00
0.254469004940773,5.496746628592758e-01,-2.658739070822170e+00,5.328179523979669e-01,-2.534691377466724e+00
0.257610597594363,5.984768434373948e-01,-2.645790343076205e+00,5.832916488694435e-01,-2.522196213644052e+00
0.260752190247953,6.457413199310116e-01,-2.626392228747738e+00,6.322657213822811e-01,-2.503478909489033e+00
0.263893782901543,6.913926789849731e-01,-2.600740609165693e+00,6.796610779678534e-01,-2.478739265734515e+00
0.267035375555132,7.353583368652873e-01,-2.569041442472039e+00,7.254013276955343e-01,-2.448186590002299e+00
0.270176968208722,7.775687466353817e-01,-2.531510132960617e+00,7.694129968460455e-01,-2.412039045582011e+00
0.273318560862312,8.179575973066391e-01,-2.488370886518589e+00,8.116257374840851e-01,-2.370522988070948e+00
0.276460153515902,8.564620042987966e-01,-2.439856054030930e+00,8.519725277419947e-01,-2.323872291818038e+00
0.279601746169492,8.930226905775073e-01,-2.386205464615281e+00,8.903898631563243e-01,-2.272327668115112e+00
0.282743338823081,9.275841578706462e-01,-2.327665750556025e+00,9.268179384319543e-01,-2.216135977073427e+00
0.285884931476671,9.600948474012025e-01,-2.264489665802132e+00,9.612008190432368e-01,-2.155549535111738e+00
0.289026524130261,9.905072896124260e-01,-2.196935399884242e+00,9.934866021180822e-01,-2.090825419965678e+00
0.292168116783851,1.018778242400755e+00,-2.125265889091825e+00,1.023627566089575e+00,-2.022224775105956e+00
0.295309709437441,1.044868817413322e+00,-2.049748126731529e+00,1.051580308639745e+00,-1.950012115425224e+00
0.298451302091030,1.068744594009405e+00,-1.970652474263198e+00,1.077305872501707e+00,-1.874454636020888e+00
0.301592894744620,1.090375720528959e+00,-1.888251975081072e+00,1.100769858729146e+00,-1.795821525864019e+00
0.304734487398210,1.109737002556358e+00,-1.802821672672766e+00,1.121942527086349e+00,-1.714383288101440e+00
0.307876080051800,1.126807977912950e+00,-1.714637934851066e+00,1.140798883256714e+00,-1.630411068692259e+00
0.311017672705389,1.141572978158500e+00,-1.623977785710107e+00,1.157318752613542e+00,-1.544175995028348e+00
0.314159265358979,1.154021176428318e+00,-1.531118246911032e+00,1.171486840343231e+00,-1.455948526133641e+00
0.317300858012569,1.164146621480029e+00,-1.436335689850988e+00,1.183292777757755e+00,-1.365997815977618e+00
0.320442450666159,1.171948257871098e+00,-1.339905200215609e+00,1.192731154680327e+00,-1.274591091376569e+00
0.323584043319749,1.177429932235480e+00,-1.242099956356573e+00,1.199801537835254e+00,-1.181993045889677e+00
0.326725635973338,1.180600385674597e+00,-1.143190622875159e+00,1.204508475219985e+00,-1.088465251048423e+00
0.329867228626928,1.181473232324443e+00,-1.043444760728684e+00,1.206861486484065e+00,-9.942655861861336e-01
0.333008821280518,1.180066924206518e+00,-9.431262551097725e-01,1.206875039385985e+00,-8.996476880600413e-01
0.336150413934108,1.176404702515526e+00,-8.424947622794106e-01,1.204568512444594e+00,-8.048604213820411e-01
0.339292006587698,1.170514535541072e+00,-7.418051764630220e-01,1.199966143946656e+00,-7.101473712955942e-01
0.342433599241287,1.162429043463830e+00,-6.413071178457295e-01,1.193096967516074e+00,-6.157463587564465e-01
0.345575191894877,1.152185410308702e+00,-5.412444426275004e-01,1.183994734493207e+00,-5.218889796930147e-01
0.348716784548467,1.139825283378191e+00,-4.418547760224720e-01,1.172697823414437e+00,-4.288001687397840e-01
0.351858377202057,1.125394660528423e+00,-3.433690690089331e-01,1.159249136922357e+00,-3.366977882535523e-01
0.354999969855647,1.108943765687850e+00,-2.460111795576724e-01,1.143695986475865e+00,-2.457922432382432e-01
0.358141562509236,1.090526913054500e+00,-1.499974789869737e-01,1.126089965266557e+00,-1.562861227196493e-01
0.361283155162826,1.070202360441772e+00,-5.553648401278682e-02,1.106486809783402e+00,-6.837386802713119e-02
0.364424747816416,1.048032152274695e+00,3.717148501766412e-02,1.084946250501128e+00,1.775853164503652e-02
0.367566340470006,1.024081952768722e+00,1.279346193003841e-01,1.061531852199586e+00,1.019338161075212e-01
0.370707933123596,9.984208698510095e-01,2.165699098284698e-01,1.036310844450898e+00,1.839837032707750e-01
0.373849525777185,9.711212704097776e-01,3.029034084759626e-01,1.009353942838715e+00,2.637491103407882e-01
0.376991118430775,9.422585874808330e-01,3.867704617404871e-01,9.807351614992834e-01,3.410803470722097e-01
0.380132711084365,9.119111200014010e-01,4.680159170510128e-01,9.505316175970006e-01,4.158372811146698e-01
0.383274303737955,8.801598257801324e-01,5.464943016233698e-01,9.188233283679460e-01,4.878894755658109e-01
0.386415896391545,8.470881083484206e-01,6.220699739209505e-01,8.856930013831908e-01,5.571162989202728e-01
0.389557489045134,8.127815983720809e-01,6.946172478511811e-01,8.512258186997433e-01,6.234070076774472e-01
0.392699081698724,7.773279303137512e-01,7.640204898999973e-01,8.155092155804667e-01,6.866608019424448e-01
0.395840674352314,7.408165150453220e-01,8.301741894759146e-01,7.786326544754457e-01,7.467868544235846e-01
0.398982267005904,7.033383091161132e-01,8.929830028027049e-01,7.406873949659313e-01,8.037043132961432e-01
0.402123859659494,6.649855813865697e-01,9.523617707646747e-01,7.017662603782501e-01,8.573422794657202e-01
0.405265452313083,6.258516777385597e-01,1.008235511171390e+00,6.619634017786559e-01,9.076397588254999e-01
0.408407044966673,5.860307845727472e-01,1.060539385968393e+00,6.213740600616995e-01,9.545455901591470e-01
0.411548637620263,5.456176917999216e-01,1.109218643978199e+00,5.800943268433543e-01,9.980183493960556e-01
0.414690230273853,5.047075560277718e-01,1.154228539810012e+00,5.382209048669226e-01,1.038026230976693e+00
0.417831822927443,4.633956646365845e-01,1.195534229628406e+00,4.958508686239647e-01,1.074546907134090e+00
0.420973415581032,4.217772014271151e-01,1.233110644519795e+00,4.530814258843466e-01,1.107567365942127e+00
0.424115008234622,3.799470145117556e-01,1.266942342240814e+00,4.100096808195401e-01,1.137083729022385e+00
0.427256600888212,3.379993871055731e-01,1.297023338175203e+00,3.667323993907688e-01,1.163101049839089e+00
0.430398193541802,2.960278118574623e-01,1.323356916364768e+00,3.233457776592674e-01,1.185633093545792e+00
0.433539786195391,2.541247693432778e-01,1.345955421515802e+00,2.799452136594786e-01,1.204702099377972e+00
0.436681378848981,2.123815113227852e-01,1.364840032914757e+00,2.366250834578191e-01,1.220338526612611e+00
0.439822971502571,1.708878493401894e-01,1.380040521216245e+00,1.934785219993581e-01,1.232580785139339e+00
0.442964564156161,1.297319492247427e-01,1.391594989092007e+00,1.505972093231689e-01,1.241474951707243e+00
0.446106156809751,8.900013202265848e-02,1.399549596752125e+00,1.080711627034465e-01,1.247074472927904e+00
0.449247749463340,4.877668186531685e-02,1.403958273368675e+00,6.598853524873399e-02,1.249439856127657e+00
0.452389342116930,9.143661250910507e-03,1.404882415447839e+00,2.443542146516507e-02,1.248638349151373e+00
0.455530934770520,-2.981926581215943e-02,1.402390573208911e+00,-1.650432973790593e-02,1.244743610225745e+00
0.458672527424110,-6.803500238188823e-02,1.396558126037810e+00,-5.674929415042002e-02,1.237835368992374e+00
0.461814120077700,-1.054291784918246e-01,1.387466948088686e+00,-9.622064305250884e-02,1.227999079820083e+00
0.464955712731289,-1.419303020371310e-01,1.375205065109954e+00,-1.348423053048727e-01,1.215325568501578e+00
0.468097305384879,-1.774699003142579e-01,1.359866303570862e+00,-1.725411203812699e-01,1.199910673432381e+00
0.471238898038469,-2.119826519240357e-01,1.341549933161293e+00,-2.092469820181196e-01,1.181854882359531e+00
0.474380490692059,-2.454065087812169e-01,1.320360303731287e+00,-2.448929721888680e-01,1.161262965774279e+00
0.477522083345649,-2.776828080075695e-01,1.296406477727576e+00,-2.794154851443795e-01,1.138243608006893e+00
0.480663675999238,-3.087563735192491e-01,1.269801859172592e+00,-3.127543412938924e-01,1.112909037062900e+00
0.483805268652828,-3.385756071534946e-01,1.240663820216785e+00,-3.448528907351905e-01,1.085374654218652e+00
0.486946861306418,-3.670925692135622e-01,1.209113326278018e+00,-3.756581062764237e-01,1.055758664370334e+00
0.490088453960008,-3.942630483447265e-01,1.175274560762195e+00,-4.051206658259667e-01,1.024181708104282e+00
0.493230046613598,-4.200466206877627e-01,1.139274550337424e+00,-4.331950240604366e-01,9.907664964282439e-01
0.496371639267187,-4.444066982895765e-01,1.101242791709873e+00,-4.598394733145402e-01,9.556374490727586e-01
0.499513231920777,-4.673105667833896e-01,1.061310880823315e+00,-4.850161936695501e-01,9.189203372396101e-01
0.502654824574367,-4.887294123830188e-01,1.019612145376234e+00,-5.086912922498629e-01,8.807419316403021e-01
0.505796417227957,-5.086383382673829e-01,9.762812815203078e-01,-5.308348317693119e-01,8.412296566318277e-01
0.508938009881546,-5.270163704619621e-01,9.314539955725248e-01,-5.514208484002475e-01,8.005112512200325e-01
0.512079602535136,-5.438464533538837e-01,8.852666515398979e-01,-5.704273590691669e-01,7.587144376624331e-01
0.515221195188726,-5.591154350061579e-01,8.378559252211706e-01,-5.878363583125110e-01,7.159665983629248e-01
0.518362787842316,-5.728140424645214e-01,7.893584656138357e-01,-6.036338048551850e-01,6.723944617101762e-01
0.521504380495906,-5.849368472770538e-01,7.399105643179565e-01,-6.178095981022201e-01,6.281237974703298e-01
0.524645973149495,-5.954822214724079e-01,6.896478335899369e-01,-6.303575447609028e-01,5.832791223024012e-01
0.527787565803085,-6.044522842668112e-01,6.387048936606443e-01,-6.412753158362896e-01,5.379834159222814e-01
0.530929158456675,-6.118528397931340e-01,5.872150698924556e-01,-6.505643942675744e-01,4.923578483981348e-01
0.534070751110265,-6.176933061669903e-01,5.353101003096288e-01,-6.582300134958828e-01,4.465215190167918e-01
0.537212343763855,-6.219866362252513e-01,4.831198539955276e-01,-6.642810872759880e-01,4.005912071172144e-01
0.540353936417444,-6.247492302912243e-01,4.307720608092330e-01,-6.687301310649084e-01,3.546811352437693e-01
0.543495529071034,-6.260008413382230e-01,3.783920528327429e-01,-6.715931753394248e-01,3.089027449287609e-01
0.546637121724624,-6.257644729392138e-01,3.261025179185290e-01,-6.728896712122004e-01,2.633644853706019e-01
0.549778714378214,-6.240662704046684e-01,2.740232656659718e-01,-6.726423887323190e-01,2.181716152314620e-01
0.552920307031804,-6.209354055236536e-01,2.222710061139017e-01,-6.708773082707229e-01,1.734260177360146e-01
0.556061899685393,-6.164039553345952e-01,1.709591413957307e-01,-6.676235054041730e-01,1.292260292115422e-01
0.559203492338983,-6.105067753619180e-01,1.201975705628728e-01,-6.629130297229294e-01,8.566628116865584e-02
0.562345084992573,-6.032813677630839e-01,7.009250774245618e-02,-6.567807779974532e-01,4.283755598222701e-02
0.565486677646163,-5.947677448372609e-01,2.074631375559030e-02,-6.492643621479326e-01,8.266561928388932e-04
0.568628270299752,-5.850082883520333e-01,-2.774265871609014e-02,-6.404039724674389e-01,-4.028371258875737e-02
0.571769862953342,-5.740476051482748e-01,-7.528020636588148e-02,-6.302422365549938e-01,-8.041504522864289e-02
0.574911455606932,-5.619323794854423e-01,-1.217764028869150e-01,-6.188240744187715e-01,-1.194931271584415e-01
